time,date,sample,hSpO2 (uA),hSpO2 (uA),hSpO2 (uA),hSpO2 (uA),cACC (g),cACC (g),cACC (g)
1570646132.950344,2019-10-09 12:35:32,6624.0,0.005650999955832958,0.02105499990284443,0.00929499976336956,0.050234999507665634,0.3257000148296356,-0.9150000214576721,-0.10689999908208847
1570646132.950344,2019-10-09 12:35:32,6625.0,0.005716999992728233,0.021071000024676323,0.00928799994289875,0.05025799944996834,0.32760000228881836,-0.9092000126838684,-0.10840000212192535
1570646132.950344,2019-10-09 12:35:32,6626.0,0.005667000077664852,0.0210960004478693,0.009298999793827534,0.050255998969078064,0.33059999346733093,-0.9023000001907349,-0.10890000313520432
1570646132.950344,2019-10-09 12:35:32,6627.0,0.0056420001201331615,0.021159999072551727,0.009263000451028347,0.05025999993085861,0.32670000195503235,-0.9136000275611877,-0.10740000009536743
1570646132.950344,2019-10-09 12:35:32,6628.0,0.00570600014179945,0.021188000217080116,0.009196000173687935,0.050269000232219696,0.3257000148296356,-0.9169999957084656,-0.10790000110864639
1570646132.950344,2019-10-09 12:35:32,6629.0,0.005727000068873167,0.021159999072551727,0.009258000180125237,0.050315000116825104,0.32519999146461487,-0.9185000061988831,-0.11429999768733978
1570646132.950344,2019-10-09 12:35:32,6630.0,0.005690000019967556,0.021239999681711197,0.009196000173687935,0.050303999334573746,0.32760000228881836,-0.9272000193595886,-0.1200999990105629
1570646132.950344,2019-10-09 12:35:32,6631.0,0.005716999992728233,0.021237999200820923,0.009310999885201454,0.05033300071954727,0.31929999589920044,-0.9394999742507935,-0.1177000030875206
1570646132.950344,2019-10-09 12:35:32,6632.0,0.005762999877333641,0.02131599932909012,0.009286000393331051,0.05040400102734566,0.3061999976634979,-0.9380000233650208,-0.11670000106096268
1570646132.950344,2019-10-09 12:35:32,6633.0,0.005694999825209379,0.021375000476837158,0.009298999793827534,0.05051400139927864,0.3086000084877014,-0.923799991607666,-0.1177000030875206
1570646132.950344,2019-10-09 12:35:32,6634.0,0.005708000157028437,0.021379999816417694,0.009320000186562538,0.05062200129032135,0.326200008392334,-0.9106000065803528,-0.12060000002384186
1570646132.950344,2019-10-09 12:35:32,6635.0,0.005743000190705061,0.021412000060081482,0.009263000451028347,0.05073900148272514,0.32179999351501465,-0.9369999766349792,-0.11959999799728394
1570646132.950344,2019-10-09 12:35:32,6636.0,0.005735999904572964,0.021395999938249588,0.009225999936461449,0.05076799914240837,0.3061999976634979,-0.9589999914169312,-0.11569999903440475
1570646132.950344,2019-10-09 12:35:32,6637.0,0.005723999813199043,0.021441999822854996,0.009332000277936459,0.05090999975800514,0.31299999356269836,-0.9442999958992004,-0.13179999589920044
1570646132.950344,2019-10-09 12:35:32,6638.0,0.005743000190705061,0.021508000791072845,0.00938900001347065,0.05119600147008896,0.3319999873638153,-0.9570000171661377,-0.149399995803833
1570646132.950344,2019-10-09 12:35:32,6639.0,0.005783999804407358,0.02150999940931797,0.00937500037252903,0.051235001534223557,0.2694999873638153,-0.9800000190734863,-0.16750000417232513
1570646132.950344,2019-10-09 12:35:32,6640.0,0.005754000041633844,0.021601999178528786,0.009305999614298344,0.051215000450611115,0.24609999358654022,-0.9340999722480774,-0.15719999372959137
1570646132.950344,2019-10-09 12:35:32,6641.0,0.005758999846875668,0.02166599966585636,0.009196000173687935,0.05133099853992462,0.301800012588501,-0.9106000065803528,-0.11620000004768372
1570646132.950344,2019-10-09 12:35:32,6642.0,0.005814000032842159,0.02173900045454502,0.009015999734401703,0.05101500079035759,0.3037000000476837,-0.9067000150680542,-0.10300000011920929
1570646132.950344,2019-10-09 12:35:32,6643.0,0.0058639999479055405,0.02177399955689907,0.008848999626934528,0.05070900171995163,0.28519999980926514,-0.8984000086784363,-0.12449999898672104
1570646132.950344,2019-10-09 12:35:32,6644.0,0.005886999890208244,0.02185400016605854,0.008709000423550606,0.05062900111079216,0.3330000042915344,-0.9014000296592712,-0.13570000231266022
1570646132.950344,2019-10-09 12:35:32,6645.0,0.005913999862968922,0.021925000473856926,0.008701999671757221,0.050703998655080795,0.3662000000476837,-0.8871999979019165,-0.12399999797344208
1570646132.950344,2019-10-09 12:35:32,6646.0,0.005948999896645546,0.021997999399900436,0.008713999763131142,0.050866998732089996,0.3544999957084656,-0.8651999831199646,-0.11720000207424164
1570646132.950344,2019-10-09 12:35:32,6647.0,0.006008000113070011,0.02201800048351288,0.008677000179886818,0.05113700032234192,0.37299999594688416,-0.8881999850273132,-0.10939999669790268
1570646132.950344,2019-10-09 12:35:32,6648.0,0.006051999982446432,0.022043999284505844,0.00873200036585331,0.05146399885416031,0.33500000834465027,-0.9535999894142151,-0.0869000032544136
1570646132.950344,2019-10-09 12:35:32,6649.0,0.00596500001847744,0.022043999284505844,0.00880299974232912,0.05147299915552139,0.37700000405311584,-0.8428000211715698,-0.09570000320672989
1570646132.950344,2019-10-09 12:35:32,6650.0,0.005913999862968922,0.021914999932050705,0.008930999785661697,0.05146399885416031,0.43549999594688416,-0.8461999893188477,-0.093299999833107
1570646132.950344,2019-10-09 12:35:32,6651.0,0.0059529999271035194,0.02167299948632717,0.008976999670267105,0.05156699940562248,0.42969998717308044,-0.9340999722480774,-0.09960000216960907
1570646132.950344,2019-10-09 12:35:32,6652.0,0.00584599981084466,0.021548999473452568,0.008922000415623188,0.051568999886512756,0.41940000653266907,-0.9136000275611877,-0.10350000113248825
1570646132.950344,2019-10-09 12:35:32,6653.0,0.005894000176340342,0.021438999101519585,0.008937999606132507,0.05166099965572357,0.3905999958515167,-0.8618000149726868,-0.09229999780654907
1570646132.950344,2019-10-09 12:35:32,6654.0,0.005865999963134527,0.021428000181913376,0.008964999578893185,0.051683999598026276,0.41850000619888306,-0.8461999893188477,-0.08640000224113464
1570646132.950344,2019-10-09 12:35:32,6655.0,0.005917000118643045,0.021393999457359314,0.009012999944388866,0.05204299837350845,0.47119998931884766,-0.8291000127792358,-0.08399999886751175
1570646133.6055923,2019-10-09 12:35:33,6656.0,0.005890999920666218,0.021389000117778778,0.009061000309884548,0.05222199857234955,0.46000000834465027,-0.8324999809265137,-0.08250000327825546
1570646133.6055923,2019-10-09 12:35:33,6657.0,0.005942000076174736,0.021409999579191208,0.009081999771296978,0.05231799930334091,0.451200008392334,-0.8403000235557556,-0.07909999787807465
1570646133.6055923,2019-10-09 12:35:33,6658.0,0.0059369998052716255,0.021345999091863632,0.00913500040769577,0.05233199894428253,0.4487000107765198,-0.8485999703407288,-0.07620000094175339
1570646133.6055923,2019-10-09 12:35:33,6659.0,0.00595800019800663,0.021333999931812286,0.009070999920368195,0.0522489994764328,0.447299987077713,-0.8672000169754028,-0.07370000332593918
1570646133.6055923,2019-10-09 12:35:33,6660.0,0.005960000213235617,0.02130899950861931,0.0090549997985363,0.05224499851465225,0.42719998955726624,-0.8682000041007996,-0.07370000332593918
1570646133.6055923,2019-10-09 12:35:33,6661.0,0.00599699979647994,0.021275000646710396,0.009052000008523464,0.05229499936103821,0.41850000619888306,-0.8755000233650208,-0.0723000019788742
1570646133.6055923,2019-10-09 12:35:33,6662.0,0.005948999896645546,0.021366000175476074,0.009180000051856041,0.052420999854803085,0.42289999127388,-0.8324999809265137,-0.07180000096559525
1570646133.6055923,2019-10-09 12:35:33,6663.0,0.00597799988463521,0.0213639996945858,0.009162000380456448,0.05261100083589554,0.4350999891757965,-0.8422999978065491,-0.061500001698732376
1570646133.6055923,2019-10-09 12:35:33,6664.0,0.0059739998541772366,0.021414000540971756,0.009235000237822533,0.052834998816251755,0.4219000041484833,-0.8960000276565552,-0.06350000202655792
1570646133.6055923,2019-10-09 12:35:33,6665.0,0.005938999820500612,0.021386999636888504,0.009146000258624554,0.0528470017015934,0.39890000224113464,-0.8999000191688538,-0.07370000332593918
1570646133.6055923,2019-10-09 12:35:33,6666.0,0.005932999774813652,0.021366000175476074,0.009235000237822533,0.052685998380184174,0.3862000107765198,-0.923799991607666,-0.06639999896287918
1570646133.6055923,2019-10-09 12:35:33,6667.0,0.005896000191569328,0.021324999630451202,0.009239999577403069,0.05266299843788147,0.36570000648498535,-0.8988999724388123,-0.061500001698732376
1570646133.6055923,2019-10-09 12:35:33,6668.0,0.005884999874979258,0.021320000290870667,0.009247000329196453,0.052494000643491745,0.3837999999523163,-0.8720999956130981,-0.05660000070929527
1570646133.6055923,2019-10-09 12:35:33,6669.0,0.005884999874979258,0.021243000403046608,0.009221999906003475,0.05242300033569336,0.3970000147819519,-0.8755000233650208,-0.0575999990105629
1570646133.6055923,2019-10-09 12:35:33,6670.0,0.005836000200361013,0.021347999572753906,0.009186999872326851,0.05212999880313873,0.3788999915122986,-0.861299991607666,-0.06199999898672104
1570646133.6055923,2019-10-09 12:35:33,6671.0,0.005807000212371349,0.02135000005364418,0.009208000265061855,0.05196800082921982,0.3589000105857849,-0.8794000148773193,-0.0723000019788742
1570646133.6055923,2019-10-09 12:35:33,6672.0,0.005841000005602837,0.021338999271392822,0.009127999655902386,0.05184900015592575,0.361299991607666,-0.9032999873161316,-0.08889999985694885
1570646133.6055923,2019-10-09 12:35:33,6673.0,0.005861999932676554,0.02131599932909012,0.00914399977773428,0.051837000995874405,0.36910000443458557,-0.9086999893188477,-0.10209999978542328
1570646133.6055923,2019-10-09 12:35:33,6674.0,0.00583899999037385,0.021372999995946884,0.009228999726474285,0.05192900076508522,0.3774000108242035,-0.9023000001907349,-0.11180000007152557
1570646133.6055923,2019-10-09 12:35:33,6675.0,0.005849999841302633,0.02143000066280365,0.009112000465393066,0.052000001072883606,0.3594000041484833,-0.9092000126838684,-0.1151999980211258
1570646133.6055923,2019-10-09 12:35:33,6676.0,0.00583200016990304,0.021425999701023102,0.009192000143229961,0.051952000707387924,0.31349998712539673,-0.9125999808311462,-0.11959999799728394
1570646133.6055923,2019-10-09 12:35:33,6677.0,0.005818000063300133,0.021386999636888504,0.009177999570965767,0.05188800022006035,0.2856000065803528,-0.9047999978065491,-0.11670000106096268
1570646133.6055923,2019-10-09 12:35:33,6678.0,0.005762999877333641,0.021435000002384186,0.009180000051856041,0.05198400095105171,0.2777999937534332,-0.9101999998092651,-0.11819999665021896
1570646133.6055923,2019-10-09 12:35:33,6679.0,0.005824999883770943,0.02148500084877014,0.009166999720036983,0.052032001316547394,0.2671000063419342,-0.9160000085830688,-0.12210000306367874
1570646133.6055923,2019-10-09 12:35:33,6680.0,0.005781999789178371,0.021486999467015266,0.00913500040769577,0.05207100138068199,0.25200000405311584,-0.9355000257492065,-0.12939999997615814
1570646133.6055923,2019-10-09 12:35:33,6681.0,0.005807000212371349,0.02151300013065338,0.009212000295519829,0.052028998732566833,0.23389999568462372,-0.9570000171661377,-0.13429999351501465
1570646133.6055923,2019-10-09 12:35:33,6682.0,0.005803999956697226,0.021483000367879868,0.00913500040769577,0.05204499885439873,0.23489999771118164,-0.9750999808311462,-0.12939999997615814
1570646133.60659,2019-10-09 12:35:33,6683.0,0.005843000020831823,0.021580999717116356,0.009169000200927258,0.05205700173974037,0.22750000655651093,-0.9843999743461609,-0.12700000405311584
1570646133.60659,2019-10-09 12:35:33,6684.0,0.005818000063300133,0.021633999422192574,0.00912300031632185,0.051972001791000366,0.21040000021457672,-0.9833999872207642,-0.13089999556541443
1570646133.60659,2019-10-09 12:35:33,6685.0,0.005836000200361013,0.021661000326275826,0.009127999655902386,0.05200200155377388,0.2070000022649765,-0.9794999957084656,-0.12449999898672104
1570646133.60659,2019-10-09 12:35:33,6686.0,0.005814000032842159,0.021661000326275826,0.009192000143229961,0.05211399868130684,0.2061000019311905,-0.9672999978065491,-0.12160000205039978
1570646133.60659,2019-10-09 12:35:33,6687.0,0.005853000096976757,0.021743999794125557,0.009219000115990639,0.05226299911737442,0.2094999998807907,-0.9595000147819519,-0.1225999966263771
1570646134.2587683,2019-10-09 12:35:34,6688.0,0.005822999868541956,0.021740999072790146,0.009271999821066856,0.052326999604701996,0.22120000422000885,-0.9560999870300293,-0.1298999935388565
1570646134.2587683,2019-10-09 12:35:34,6689.0,0.005853000096976757,0.0217250008136034,0.009333999827504158,0.05263400077819824,0.22509999573230743,-0.9595000147819519,-0.12890000641345978
1570646134.2587683,2019-10-09 12:35:34,6690.0,0.005816000048071146,0.021723000332713127,0.009320000186562538,0.052692998200654984,0.211899995803833,-0.9560999870300293,-0.1264999955892563
1570646134.2587683,2019-10-09 12:35:34,6691.0,0.005772000178694725,0.02165200002491474,0.009337999857962132,0.05279399827122688,0.20900000631809235,-0.9491999745368958,-0.12060000002384186
1570646134.2587683,2019-10-09 12:35:34,6692.0,0.005807000212371349,0.021764000877738,0.009379999712109566,0.052935998886823654,0.21729999780654907,-0.9404000043869019,-0.11379999667406082
1570646134.2587683,2019-10-09 12:35:34,6693.0,0.005776999983936548,0.02175300009548664,0.009438999928534031,0.053015999495983124,0.21729999780654907,-0.9359999895095825,-0.10939999669790268
1570646134.2587683,2019-10-09 12:35:34,6694.0,0.005795000120997429,0.021789999678730965,0.009359000250697136,0.05298199877142906,0.21879999339580536,-0.9413999915122986,-0.11330000311136246
1570646134.2587683,2019-10-09 12:35:34,6695.0,0.005795000120997429,0.02176699973642826,0.00938900001347065,0.05281699821352959,0.21969999372959137,-0.9506999850273132,-0.11720000207424164
1570646134.2587683,2019-10-09 12:35:34,6696.0,0.005735999904572964,0.02164500020444393,0.009333999827504158,0.05253300070762634,0.21480000019073486,-0.9624000191688538,-0.12399999797344208
1570646134.2587683,2019-10-09 12:35:34,6697.0,0.005698999855667353,0.02150600031018257,0.009328999556601048,0.052285999059677124,0.21629999577999115,-0.9648000001907349,-0.12890000641345978
1570646134.2587683,2019-10-09 12:35:34,6698.0,0.005688000004738569,0.021340999752283096,0.009317999705672264,0.05199500173330307,0.22609999775886536,-0.9589999914169312,-0.12790000438690186
1570646134.2587683,2019-10-09 12:35:34,6699.0,0.005646999925374985,0.02124899998307228,0.009309000335633755,0.05183300003409386,0.23240000009536743,-0.95169997215271,-0.12449999898672104
1570646134.2587683,2019-10-09 12:35:34,6700.0,0.005681000184267759,0.02118300087749958,0.009297000244259834,0.05173199996352196,0.2363000065088272,-0.9437999725341797,-0.11569999903440475
1570646134.2587683,2019-10-09 12:35:34,6701.0,0.005656000226736069,0.021198999136686325,0.009421000257134438,0.051663000136613846,0.23240000009536743,-0.9398999810218811,-0.11720000207424164
1570646134.2587683,2019-10-09 12:35:34,6702.0,0.005723999813199043,0.021133000031113625,0.009317999705672264,0.05153999850153923,0.2354000061750412,-0.9413999915122986,-0.11720000207424164
1570646134.2587683,2019-10-09 12:35:34,6703.0,0.005650999955832958,0.021098000928759575,0.009298999793827534,0.05155999958515167,0.2451000064611435,-0.9404000043869019,-0.12110000103712082
1570646134.2587683,2019-10-09 12:35:34,6704.0,0.0056489999406039715,0.02104100026190281,0.009356999769806862,0.051603998988866806,0.25099998712539673,-0.9452999830245972,-0.12060000002384186
1570646134.2587683,2019-10-09 12:35:34,6705.0,0.005667000077664852,0.02094300091266632,0.009266999550163746,0.0515809990465641,0.23729999363422394,-0.9531000256538391,-0.11620000004768372
1570646134.2587683,2019-10-09 12:35:34,6706.0,0.005683000199496746,0.021057000383734703,0.009215000085532665,0.05137300118803978,0.23240000009536743,-0.9452999830245972,-0.10989999771118164
1570646134.2587683,2019-10-09 12:35:34,6707.0,0.0056420001201331615,0.021059000864624977,0.009270000271499157,0.05124400183558464,0.23970000445842743,-0.9359999895095825,-0.10599999874830246
1570646134.2587683,2019-10-09 12:35:34,6708.0,0.005640000104904175,0.021093999966979027,0.009242000058293343,0.05121900141239166,0.2476000040769577,-0.9345999956130981,-0.10790000110864639
1570646134.2587683,2019-10-09 12:35:34,6709.0,0.005679000169038773,0.02106899954378605,0.00927400030195713,0.051270000636577606,0.2549000084400177,-0.9375,-0.10740000009536743
1570646134.2587683,2019-10-09 12:35:34,6710.0,0.005671999882906675,0.021144000813364983,0.009265000000596046,0.0512860007584095,0.24899999797344208,-0.9398999810218811,-0.10639999806880951
1570646134.2587683,2019-10-09 12:35:34,6711.0,0.005625999998301268,0.021080000326037407,0.009277000091969967,0.05121200159192085,0.24609999358654022,-0.9413999915122986,-0.1054999977350235
1570646134.2587683,2019-10-09 12:35:34,6712.0,0.005597999785095453,0.02117599919438362,0.00929499976336956,0.05117100104689598,0.24950000643730164,-0.9398999810218811,-0.10740000009536743
1570646134.2587683,2019-10-09 12:35:34,6713.0,0.005657999776303768,0.02114200033247471,0.009263000451028347,0.05120500177145004,0.2533999979496002,-0.9404000043869019,-0.10989999771118164
1570646134.2587683,2019-10-09 12:35:34,6714.0,0.005644000135362148,0.021159999072551727,0.00928100012242794,0.05121000111103058,0.25440001487731934,-0.9369999766349792,-0.1128000020980835
1570646134.2587683,2019-10-09 12:35:34,6715.0,0.005667000077664852,0.021158000454306602,0.009260999970138073,0.05120300129055977,0.24709999561309814,-0.9340999722480774,-0.10939999669790268
1570646134.2587683,2019-10-09 12:35:34,6716.0,0.005636999849230051,0.021188000217080116,0.009201000444591045,0.05114800110459328,0.24709999561309814,-0.9336000084877014,-0.10740000009536743
1570646134.2587683,2019-10-09 12:35:34,6717.0,0.005630000028759241,0.02114200033247471,0.009242000058293343,0.051201000809669495,0.2524000108242035,-0.9340999722480774,-0.10790000110864639
1570646134.2587683,2019-10-09 12:35:34,6718.0,0.005675999913364649,0.02117599919438362,0.009266999550163746,0.05130400136113167,0.2587999999523163,-0.9351000189781189,-0.11079999804496765
1570646134.2587683,2019-10-09 12:35:34,6719.0,0.005665000062435865,0.021198999136686325,0.009248999878764153,0.05143899843096733,0.2549000084400177,-0.9442999958992004,-0.11469999700784683
1570646134.9101615,2019-10-09 12:35:34,6720.0,0.0056489999406039715,0.02122199907898903,0.00929499976336956,0.05148699879646301,0.25290000438690186,-0.9496999979019165,-0.11429999768733978
1570646134.9101615,2019-10-09 12:35:34,6721.0,0.005646999925374985,0.02127699926495552,0.009278999641537666,0.051541998982429504,0.2451000064611435,-0.9477999806404114,-0.10840000212192535
1570646134.9101615,2019-10-09 12:35:34,6722.0,0.005679000169038773,0.021285999566316605,0.009260999970138073,0.051568999886512756,0.2401999980211258,-0.9437999725341797,-0.1054999977350235
1570646134.9101615,2019-10-09 12:35:34,6723.0,0.005710999947041273,0.021268000826239586,0.009317999705672264,0.05167900025844574,0.24369999766349792,-0.9390000104904175,-0.10499999672174454
1570646135.0355384,2019-10-09 12:35:35,6724.0,0.005685000214725733,0.021331999450922012,0.009297000244259834,0.051777999848127365,0.24799999594688416,-0.9404000043869019,-0.10599999874830246
1570646135.0355384,2019-10-09 12:35:35,6725.0,0.005698999855667353,0.021352000534534454,0.009328999556601048,0.05182600021362305,0.24950000643730164,-0.9409000277519226,-0.10639999806880951
1570646135.0355384,2019-10-09 12:35:35,6726.0,0.005652999971061945,0.021379999816417694,0.009343000128865242,0.0519540011882782,0.24660000205039978,-0.9434000253677368,-0.10890000313520432
1570646135.0355384,2019-10-09 12:35:35,6727.0,0.005683000199496746,0.021407000720500946,0.00937000010162592,0.0519770011305809,0.24799999594688416,-0.9390000104904175,-0.11230000108480453
1570646135.0355384,2019-10-09 12:35:35,6728.0,0.005692000035196543,0.021393999457359314,0.009379999712109566,0.05213199928402901,0.25099998712539673,-0.9404000043869019,-0.11379999667406082
1570646135.0355384,2019-10-09 12:35:35,6729.0,0.005760999862104654,0.02144400030374527,0.009336000308394432,0.05216699838638306,0.25540000200271606,-0.9423999786376953,-0.11869999766349792
1570646135.0355384,2019-10-09 12:35:35,6730.0,0.00571999978274107,0.021462000906467438,0.009332000277936459,0.052212998270988464,0.25200000405311584,-0.9506999850273132,-0.11869999766349792
1570646135.0355384,2019-10-09 12:35:35,6731.0,0.00570600014179945,0.02154500037431717,0.00937699992209673,0.05232900008559227,0.24660000205039978,-0.9473000168800354,-0.11429999768733978
1570646135.0365386,2019-10-09 12:35:35,6732.0,0.005679000169038773,0.021548999473452568,0.009360999800264835,0.05235400050878525,0.24709999561309814,-0.9394999742507935,-0.10840000212192535
1570646135.0365386,2019-10-09 12:35:35,6733.0,0.005694999825209379,0.021571999415755272,0.009425000287592411,0.052515000104904175,0.2524000108242035,-0.9345999956130981,-0.10740000009536743
1570646135.0365386,2019-10-09 12:35:35,6734.0,0.0057470002211630344,0.021626999601721764,0.00944599974900484,0.052643001079559326,0.25589999556541443,-0.9336000084877014,-0.11079999804496765
1570646135.0365386,2019-10-09 12:35:35,6735.0,0.005665000062435865,0.021612999960780144,0.009421000257134438,0.05264100059866905,0.25540000200271606,-0.9413999915122986,-0.11469999700784683
1570646135.0365386,2019-10-09 12:35:35,6736.0,0.005667000077664852,0.021626999601721764,0.009399999864399433,0.05262700095772743,0.25099998712539673,-0.9419000148773193,-0.11379999667406082
1570646135.0365386,2019-10-09 12:35:35,6737.0,0.005700999870896339,0.021555999293923378,0.009477999992668629,0.052414000034332275,0.25049999356269836,-0.9467999935150146,-0.11129999905824661
1570646135.0365386,2019-10-09 12:35:35,6738.0,0.005683000199496746,0.021354999393224716,0.009441000409424305,0.0521869994699955,0.25200000405311584,-0.9409000277519226,-0.10689999908208847
1570646135.0365386,2019-10-09 12:35:35,6739.0,0.005636999849230051,0.021236000582575798,0.009428000077605247,0.052028998732566833,0.25589999556541443,-0.9359999895095825,-0.10840000212192535
1570646135.0365386,2019-10-09 12:35:35,6740.0,0.005621000193059444,0.021126000210642815,0.009415999986231327,0.051917001605033875,0.2549000084400177,-0.9340999722480774,-0.10890000313520432
1570646135.0365386,2019-10-09 12:35:35,6741.0,0.005563999991863966,0.021098000928759575,0.00937699992209673,0.05188800022006035,0.2583000063896179,-0.9375,-0.11129999905824661
1570646135.0365386,2019-10-09 12:35:35,6742.0,0.005568999797105789,0.021043000742793083,0.009464000351727009,0.0518530011177063,0.26420000195503235,-0.9398999810218811,-0.1128000020980835
1570646135.0365386,2019-10-09 12:35:35,6743.0,0.005621000193059444,0.02100200019776821,0.009417999535799026,0.05188800022006035,0.27149999141693115,-0.9413999915122986,-0.1128000020980835
1570646135.0365386,2019-10-09 12:35:35,6744.0,0.005628000013530254,0.020979000255465508,0.009451000019907951,0.05186700075864792,0.2827000021934509,-0.9423999786376953,-0.11180000007152557
1570646135.0365386,2019-10-09 12:35:35,6745.0,0.00558000011369586,0.020927000790834427,0.009514999575912952,0.0518140010535717,0.29789999127388,-0.9326000213623047,-0.11469999700784683
1570646135.0365386,2019-10-09 12:35:35,6746.0,0.0055320002138614655,0.020924000069499016,0.009437000378966331,0.0518140010535717,0.3052000105381012,-0.9320999979972839,-0.12349999696016312
1570646135.0365386,2019-10-09 12:35:35,6747.0,0.00558699993416667,0.020879000425338745,0.009444000199437141,0.05171100050210953,0.30320000648498535,-0.9218999743461609,-0.1348000019788742
1570646135.0375366,2019-10-09 12:35:35,6748.0,0.005623999983072281,0.020891999825835228,0.009336000308394432,0.05154399946331978,0.2919999957084656,-0.9179999828338623,-0.1348000019788742
1570646135.0375366,2019-10-09 12:35:35,6749.0,0.005613999906927347,0.020879000425338745,0.009310999885201454,0.051527999341487885,0.28760001063346863,-0.9110999703407288,-0.13279999792575836
1570646135.0375366,2019-10-09 12:35:35,6750.0,0.0056329998187720776,0.02095399983227253,0.009297000244259834,0.051601000130176544,0.29589998722076416,-0.9003999829292297,-0.12939999997615814
1570646135.0375366,2019-10-09 12:35:35,6751.0,0.005665000062435865,0.02093599922955036,0.00937000010162592,0.051635999232530594,0.3061999976634979,-0.9077000021934509,-0.12890000641345978
1570646135.5132618,2019-10-09 12:35:35,6752.0,0.0056489999406039715,0.020944999530911446,0.009327000007033348,0.05157399922609329,0.288100004196167,-0.9276999831199646,-0.1371999979019165
1570646135.5132618,2019-10-09 12:35:35,6753.0,0.005698999855667353,0.02093599922955036,0.009298999793827534,0.05139100179076195,0.27489998936653137,-0.9262999892234802,-0.1445000022649765
1570646135.5132618,2019-10-09 12:35:35,6754.0,0.005681000184267759,0.020976999774575233,0.009219000115990639,0.05136299878358841,0.27000001072883606,-0.9394999742507935,-0.14499999582767487
1570646135.5132618,2019-10-09 12:35:35,6755.0,0.005694999825209379,0.020969999954104424,0.009228999726474285,0.05142499879002571,0.26660001277923584,-0.9390000104904175,-0.14790000021457672
1570646135.5132618,2019-10-09 12:35:35,6756.0,0.005723999813199043,0.020972000434994698,0.009265000000596046,0.05159899964928627,0.2705000042915344,-0.9276999831199646,-0.15379999577999115
1570646135.5132618,2019-10-09 12:35:35,6757.0,0.005688000004738569,0.021006999537348747,0.009258000180125237,0.05172500014305115,0.2827000021934509,-0.9229000210762024,-0.15230000019073486
1570646135.5132618,2019-10-09 12:35:35,6758.0,0.005694999825209379,0.02102700062096119,0.00927400030195713,0.051876001060009,0.27390000224113464,-0.9404000043869019,-0.1459999978542328
1570646135.5132618,2019-10-09 12:35:35,6759.0,0.00571999978274107,0.021080000326037407,0.009305999614298344,0.05204299837350845,0.2660999894142151,-0.9477999806404114,-0.14059999585151672
1570646135.5132618,2019-10-09 12:35:35,6760.0,0.005663000047206879,0.021144000813364983,0.00937000010162592,0.05233599990606308,0.2759000062942505,-0.9394999742507935,-0.1421000063419342
1570646135.5132618,2019-10-09 12:35:35,6761.0,0.005663000047206879,0.021177999675273895,0.00945299956947565,0.05260799825191498,0.2831999957561493,-0.9355000257492065,-0.14650000631809235
1570646135.5132618,2019-10-09 12:35:35,6762.0,0.005667000077664852,0.021265000104904175,0.009441000409424305,0.05285999923944473,0.29350000619888306,-0.9243000149726868,-0.1469999998807907
1570646135.5132618,2019-10-09 12:35:35,6763.0,0.005671999882906675,0.021317999809980392,0.009511999785900116,0.05308699980378151,0.29589998722076416,-0.9243000149726868,-0.14650000631809235
1570646135.5132618,2019-10-09 12:35:35,6764.0,0.005657999776303768,0.02129499986767769,0.009557999670505524,0.05319900065660477,0.2904999852180481,-0.9307000041007996,-0.14790000021457672
1570646135.5132618,2019-10-09 12:35:35,6765.0,0.005646999925374985,0.021292999386787415,0.00963400024920702,0.053296998143196106,0.2915000021457672,-0.9336000084877014,-0.15189999341964722
1570646135.5132618,2019-10-09 12:35:35,6766.0,0.005646999925374985,0.021359000355005264,0.009665999561548233,0.053470999002456665,0.302700012922287,-0.9355000257492065,-0.15279999375343323
1570646135.5132618,2019-10-09 12:35:35,6767.0,0.005630000028759241,0.02133600041270256,0.009657000191509724,0.05361099913716316,0.301800012588501,-0.9286999702453613,-0.15139999985694885
1570646135.5132618,2019-10-09 12:35:35,6768.0,0.005657999776303768,0.021412000060081482,0.0096859997138381,0.05376699939370155,0.30320000648498535,-0.92330002784729,-0.14990000426769257
1570646135.5132618,2019-10-09 12:35:35,6769.0,0.005650999955832958,0.021508000791072845,0.009713999927043915,0.053961001336574554,0.3109999895095825,-0.9110999703407288,-0.1509000062942505
1570646135.5132618,2019-10-09 12:35:35,6770.0,0.005681000184267759,0.02148500084877014,0.009754999540746212,0.05414700135588646,0.31690001487731934,-0.9125999808311462,-0.15479999780654907
1570646135.5132618,2019-10-09 12:35:35,6771.0,0.005663000047206879,0.021497000008821487,0.009846000000834465,0.054304998368024826,0.32280001044273376,-0.9330999851226807,-0.155799999833107
1570646135.5132618,2019-10-09 12:35:35,6772.0,0.005640000104904175,0.02154500037431717,0.009852999821305275,0.05433199927210808,0.3061999976634979,-0.9394999742507935,-0.15039999783039093
1570646135.5142608,2019-10-09 12:35:35,6773.0,0.005623999983072281,0.02148500084877014,0.009802999906241894,0.05416899919509888,0.28760001063346863,-0.9164999723434448,-0.14399999380111694
1570646135.5142608,2019-10-09 12:35:35,6774.0,0.005563999991863966,0.02137799933552742,0.00986700039356947,0.054055001586675644,0.29249998927116394,-0.9106000065803528,-0.13920000195503235
1570646135.5142608,2019-10-09 12:35:35,6775.0,0.00558699993416667,0.02121499925851822,0.009891999885439873,0.05400199815630913,0.3086000084877014,-0.9023000001907349,-0.14159999787807465
1570646135.5142608,2019-10-09 12:35:35,6776.0,0.0055959997698664665,0.02108900062739849,0.009943000040948391,0.05395900085568428,0.32030001282691956,-0.9047999978065491,-0.14259999990463257
1570646135.5142608,2019-10-09 12:35:35,6777.0,0.0055320002138614655,0.021006999537348747,0.00993799977004528,0.05389000102877617,0.323199987411499,-0.9125999808311462,-0.14110000431537628
1570646135.5142608,2019-10-09 12:35:35,6778.0,0.005510999821126461,0.020934000611305237,0.009936000220477581,0.05382600054144859,0.32760000228881836,-0.9189000129699707,-0.1421000063419342
1570646135.5142608,2019-10-09 12:35:35,6779.0,0.005541000049561262,0.02094000019133091,0.009940000250935555,0.05370499938726425,0.3296000063419342,-0.9223999977111816,-0.13819999992847443
1570646135.5142608,2019-10-09 12:35:35,6780.0,0.005495000164955854,0.020904000848531723,0.00993099994957447,0.05365400016307831,0.31790000200271606,-0.8955000042915344,-0.12349999696016312
1570646135.5142608,2019-10-09 12:35:35,6781.0,0.0054790000431239605,0.02087399922311306,0.009921999648213387,0.05349000170826912,0.31790000200271606,-0.8960000276565552,-0.11469999700784683
1570646135.5142608,2019-10-09 12:35:35,6782.0,0.0055229999125003815,0.020834999158978462,0.009882999584078789,0.053380001336336136,0.3334999978542328,-0.8955000042915344,-0.1177000030875206
1570646135.5142608,2019-10-09 12:35:35,6783.0,0.005520999897271395,0.02080100029706955,0.009897000156342983,0.05319200083613396,0.3407999873161316,-0.8984000086784363,-0.11959999799728394
1570646136.1706624,2019-10-09 12:35:36,6784.0,0.0054270001128315926,0.020752999931573868,0.009901000186800957,0.052955999970436096,0.33640000224113464,-0.9125999808311462,-0.11569999903440475
1570646136.2679117,2019-10-09 12:35:36,6785.0,0.00546099990606308,0.02076900005340576,0.00979399960488081,0.05276599898934364,0.3188000023365021,-0.9140999913215637,-0.11469999700784683
1570646136.2679117,2019-10-09 12:35:36,6786.0,0.005472999997437,0.020781999453902245,0.009797999635338783,0.052581001073122025,0.3075999915599823,-0.9243000149726868,-0.10939999669790268
1570646136.2679117,2019-10-09 12:35:36,6787.0,0.00548599986359477,0.02085299976170063,0.00977800041437149,0.05259000137448311,0.30320000648498535,-0.9229000210762024,-0.11129999905824661
1570646136.2679117,2019-10-09 12:35:36,6788.0,0.005475000012665987,0.020843999460339546,0.00977999996393919,0.05264100059866905,0.302700012922287,-0.9154999852180481,-0.11469999700784683
1570646136.2679117,2019-10-09 12:35:36,6789.0,0.005489000119268894,0.02088100090622902,0.009825999848544598,0.05267300084233284,0.3037000000476837,-0.9071999788284302,-0.1200999990105629
1570646136.2679117,2019-10-09 12:35:36,6790.0,0.005431000143289566,0.02088100090622902,0.009816999547183514,0.05265900120139122,0.30219998955726624,-0.9136000275611877,-0.12349999696016312
1570646136.2679117,2019-10-09 12:35:36,6791.0,0.005458999890834093,0.02081199921667576,0.009846000000834465,0.052754998207092285,0.3003000020980835,-0.926800012588501,-0.12600000202655792
1570646136.2679117,2019-10-09 12:35:36,6792.0,0.00546099990606308,0.020785000175237656,0.009878999553620815,0.052813999354839325,0.2915000021457672,-0.9340999722480774,-0.13130000233650208
1570646136.2679117,2019-10-09 12:35:36,6793.0,0.005421999841928482,0.02079799957573414,0.009820999577641487,0.05295399948954582,0.288100004196167,-0.9355000257492065,-0.13230000436306
1570646136.2679117,2019-10-09 12:35:36,6794.0,0.005491000134497881,0.02076599933207035,0.009882999584078789,0.05292699858546257,0.2831999957561493,-0.9429000020027161,-0.13230000436306
1570646136.2679117,2019-10-09 12:35:36,6795.0,0.005458999890834093,0.02080800011754036,0.009864999912679195,0.053063999861478806,0.28119999170303345,-0.9359999895095825,-0.13040000200271606
1570646136.2679117,2019-10-09 12:35:36,6796.0,0.00546600017696619,0.02080800011754036,0.009855999611318111,0.05321300029754639,0.27489998936653137,-0.926800012588501,-0.13279999792575836
1570646136.2679117,2019-10-09 12:35:36,6797.0,0.0054410002194345,0.020785000175237656,0.00986700039356947,0.05332700163125992,0.2734000086784363,-0.9326000213623047,-0.13819999992847443
1570646136.2689114,2019-10-09 12:35:36,6798.0,0.005458999890834093,0.020850999280810356,0.00992400012910366,0.05336799845099449,0.27639999985694885,-0.9312000274658203,-0.1395999938249588
1570646136.2689114,2019-10-09 12:35:36,6799.0,0.005475000012665987,0.020885000005364418,0.009898999705910683,0.05349000170826912,0.27250000834465027,-0.9375,-0.14110000431537628
1570646136.2689114,2019-10-09 12:35:36,6800.0,0.005442999769002199,0.020847000181674957,0.009920000098645687,0.05352900177240372,0.27390000224113464,-0.9398999810218811,-0.14110000431537628
1570646136.2689114,2019-10-09 12:35:36,6801.0,0.005472999997437,0.020879000425338745,0.009936000220477581,0.05366099998354912,0.2720000147819519,-0.9390000104904175,-0.1386999934911728
1570646136.2689114,2019-10-09 12:35:36,6802.0,0.005456999875605106,0.020885000005364418,0.009943000040948391,0.053713999688625336,0.2694999873638153,-0.9369999766349792,-0.1386999934911728
1570646136.2689114,2019-10-09 12:35:36,6803.0,0.005475000012665987,0.020889999344944954,0.009943000040948391,0.05381900072097778,0.27639999985694885,-0.9345999956130981,-0.13379999995231628
1570646136.2689114,2019-10-09 12:35:36,6804.0,0.005504999775439501,0.020927000790834427,0.009943000040948391,0.053658999502658844,0.2827000021934509,-0.9291999936103821,-0.13670000433921814
1570646136.2689114,2019-10-09 12:35:36,6805.0,0.0055229999125003815,0.02097499929368496,0.00994499959051609,0.05350600183010101,0.30320000648498535,-0.9077000021934509,-0.14110000431537628
1570646136.2689114,2019-10-09 12:35:36,6806.0,0.005475000012665987,0.021045999601483345,0.009828000329434872,0.053373001515865326,0.30219998955726624,-0.9375,-0.1371999979019165
1570646136.2689114,2019-10-09 12:35:36,6807.0,0.005495000164955854,0.02111000008881092,0.009724999777972698,0.05297200009226799,0.27149999141693115,-0.9442999958992004,-0.12890000641345978
1570646136.2689114,2019-10-09 12:35:36,6808.0,0.005561999976634979,0.021145999431610107,0.009677000343799591,0.05272100120782852,0.25540000200271606,-0.9491999745368958,-0.12549999356269836
1570646136.2689114,2019-10-09 12:35:36,6809.0,0.005547999870032072,0.021167000755667686,0.009650000371038914,0.05246699973940849,0.26510000228881836,-0.9301999807357788,-0.13529999554157257
1570646136.2689114,2019-10-09 12:35:36,6810.0,0.005539000034332275,0.02114200033247471,0.009619999676942825,0.052253998816013336,0.28519999980926514,-0.9009000062942505,-0.14259999990463257
1570646136.2689114,2019-10-09 12:35:36,6811.0,0.005518000107258558,0.021084999665617943,0.009595000185072422,0.052080001682043076,0.2964000105857849,-0.9077000021934509,-0.1371999979019165
1570646136.2689114,2019-10-09 12:35:36,6812.0,0.005504999775439501,0.020904000848531723,0.009602000005543232,0.05187400057911873,0.29350000619888306,-0.9380000233650208,-0.1177000030875206
1570646136.2689114,2019-10-09 12:35:36,6813.0,0.005497999954968691,0.020820999518036842,0.00955399964004755,0.051663000136613846,0.28610000014305115,-0.9326000213623047,-0.12160000205039978
1570646136.2689114,2019-10-09 12:35:36,6814.0,0.005470000207424164,0.020791999995708466,0.009556000120937824,0.05164499953389168,0.3149000108242035,-0.9086999893188477,-0.125
1570646136.2689114,2019-10-09 12:35:36,6815.0,0.0055069997906684875,0.020791999995708466,0.009603999555110931,0.05170699954032898,0.34470000863075256,-0.9262999892234802,-0.12160000205039978
1570646136.8264186,2019-10-09 12:35:36,6816.0,0.00548599986359477,0.020733999088406563,0.00952799990773201,0.051642999053001404,0.31150001287460327,-0.9262999892234802,-0.12449999898672104
1570646136.8264186,2019-10-09 12:35:36,6817.0,0.005489000119268894,0.02069300040602684,0.009479999542236328,0.05146599933505058,0.2709999978542328,-0.9003999829292297,-0.12399999797344208
1570646136.8264186,2019-10-09 12:35:36,6818.0,0.005477000027894974,0.020670000463724136,0.009479999542236328,0.05141400173306465,0.28220000863075256,-0.8978999853134155,-0.12399999797344208
1570646136.8264186,2019-10-09 12:35:36,6819.0,0.005495000164955854,0.020589999854564667,0.00953300017863512,0.051375001668930054,0.3125,-0.9140999913215637,-0.1348000019788742
1570646136.8264186,2019-10-09 12:35:36,6820.0,0.005481999833136797,0.020560000091791153,0.009518999606370926,0.05125100165605545,0.31450000405311584,-0.9291999936103821,-0.1436000019311905
1570646136.8264186,2019-10-09 12:35:36,6821.0,0.0054270001128315926,0.020548999309539795,0.009477999992668629,0.05118900164961815,0.2896000146865845,-0.9369999766349792,-0.14990000426769257
1570646136.8264186,2019-10-09 12:35:36,6822.0,0.00545400008559227,0.0205719992518425,0.009460000321269035,0.051047999411821365,0.27730000019073486,-0.9380000233650208,-0.1543000042438507
1570646136.8264186,2019-10-09 12:35:36,6823.0,0.005499999970197678,0.02056499943137169,0.009488999843597412,0.05107999965548515,0.2930000126361847,-0.9262999892234802,-0.15719999372959137
1570646136.8274152,2019-10-09 12:35:36,6824.0,0.005497999954968691,0.020661000162363052,0.009434999898076057,0.05108899995684624,0.298799991607666,-0.9014000296592712,-0.16750000417232513
1570646136.8274152,2019-10-09 12:35:36,6825.0,0.005458999890834093,0.020617999136447906,0.009352000430226326,0.05092199891805649,0.30469998717308044,-0.9140999913215637,-0.15770000219345093
1570646136.8274152,2019-10-09 12:35:36,6826.0,0.005504999775439501,0.020665999501943588,0.009422999806702137,0.05086199939250946,0.2930000126361847,-0.9258000254631042,-0.1509000062942505
1570646136.8274152,2019-10-09 12:35:36,6827.0,0.005526999942958355,0.02064099907875061,0.009360999800264835,0.050725001841783524,0.2720000147819519,-0.9340999722480774,-0.14890000224113464
1570646136.8274152,2019-10-09 12:35:36,6828.0,0.005499999970197678,0.020661000162363052,0.009332000277936459,0.05064700171351433,0.25929999351501465,-0.9326000213623047,-0.1421000063419342
1570646136.8274152,2019-10-09 12:35:36,6829.0,0.0055069997906684875,0.020677000284194946,0.009309000335633755,0.05064700171351433,0.26899999380111694,-0.9345999956130981,-0.13619999587535858
1570646136.8274152,2019-10-09 12:35:36,6830.0,0.0054790000431239605,0.020661000162363052,0.009337999857962132,0.05071299895644188,0.274399995803833,-0.9409000277519226,-0.13429999351501465
1570646136.8274152,2019-10-09 12:35:36,6831.0,0.005481999833136797,0.020723000168800354,0.009340999647974968,0.05067199841141701,0.26759999990463257,-0.9365000128746033,-0.13670000433921814
1570646136.8274152,2019-10-09 12:35:36,6832.0,0.005508999805897474,0.02071399986743927,0.009332000277936459,0.05070199817419052,0.28999999165534973,-0.926800012588501,-0.13619999587535858
1570646136.8274152,2019-10-09 12:35:36,6833.0,0.005518000107258558,0.02071399986743927,0.009297000244259834,0.050710998475551605,0.2896000146865845,-0.9380000233650208,-0.13920000195503235
1570646136.8274152,2019-10-09 12:35:36,6834.0,0.005489000119268894,0.020778000354766846,0.009278999641537666,0.050652001053094864,0.2768999934196472,-0.9345999956130981,-0.1445000022649765
1570646136.8284235,2019-10-09 12:35:36,6835.0,0.005501999985426664,0.02076900005340576,0.009320000186562538,0.05072899907827377,0.2754000127315521,-0.9214000105857849,-0.14790000021457672
1570646136.8284235,2019-10-09 12:35:36,6836.0,0.005526999942958355,0.02080499939620495,0.009290000423789024,0.05075899884104729,0.28610000014305115,-0.9115999937057495,-0.15770000219345093
1570646136.8284235,2019-10-09 12:35:36,6837.0,0.0054790000431239605,0.020817000418901443,0.009305999614298344,0.05081599950790405,0.30660000443458557,-0.9169999957084656,-0.16060000658035278
1570646136.8284235,2019-10-09 12:35:36,6838.0,0.005541000049561262,0.020885000005364418,0.009321999736130238,0.050852999091148376,0.3003000020980835,-0.9315999746322632,-0.15620000660419464
1570646136.8284235,2019-10-09 12:35:36,6839.0,0.005561999976634979,0.02089500054717064,0.00928799994289875,0.05075899884104729,0.2660999894142151,-0.9448000192642212,-0.15279999375343323
1570646136.8284235,2019-10-09 12:35:36,6840.0,0.005549999885261059,0.020919999107718468,0.009260999970138073,0.05075199902057648,0.24609999358654022,-0.9340999722480774,-0.1543000042438507
1570646136.8284235,2019-10-09 12:35:36,6841.0,0.0055320002138614655,0.020912999287247658,0.009266999550163746,0.050925999879837036,0.26759999990463257,-0.926800012588501,-0.15719999372959137
1570646136.8284235,2019-10-09 12:35:36,6842.0,0.0055229999125003815,0.020934000611305237,0.009310999885201454,0.05094499886035919,0.2808000147342682,-0.9315999746322632,-0.1615999937057495
1570646136.8284235,2019-10-09 12:35:36,6843.0,0.005534000229090452,0.020934000611305237,0.009304000064730644,0.05101799964904785,0.27730000019073486,-0.9404000043869019,-0.15919999778270721
1570646136.8284235,2019-10-09 12:35:36,6844.0,0.005568999797105789,0.020956000313162804,0.00928100012242794,0.050985999405384064,0.2720000147819519,-0.9369999766349792,-0.1615999937057495
1570646136.8284235,2019-10-09 12:35:36,6845.0,0.005493000149726868,0.02098199911415577,0.00928100012242794,0.05105699971318245,0.2831999957561493,-0.9272000193595886,-0.16060000658035278
1570646136.8284235,2019-10-09 12:35:36,6846.0,0.005584999918937683,0.021031999960541725,0.009297000244259834,0.05116000026464462,0.2919999957084656,-0.9189000129699707,-0.16019999980926514
1570646136.8294098,2019-10-09 12:35:36,6847.0,0.005576000083237886,0.021043000742793083,0.009328999556601048,0.05118900164961815,0.28369998931884766,-0.9247999787330627,-0.16359999775886536
1570646137.427658,2019-10-09 12:35:37,6848.0,0.005582000128924847,0.02108200080692768,0.009290000423789024,0.0512240007519722,0.28119999170303345,-0.9315999746322632,-0.16359999775886536
1570646137.5443454,2019-10-09 12:35:37,6849.0,0.005582000128924847,0.02110699936747551,0.009313000366091728,0.05123300105333328,0.2777999937534332,-0.9214000105857849,-0.16019999980926514
1570646137.5453434,2019-10-09 12:35:37,6850.0,0.005539000034332275,0.02112399972975254,0.009286000393331051,0.05119900032877922,0.2865999937057495,-0.9115999937057495,-0.1581999957561493
1570646137.5453434,2019-10-09 12:35:37,6851.0,0.005543999839574099,0.02102700062096119,0.009265000000596046,0.05090999975800514,0.29490000009536743,-0.926800012588501,-0.15479999780654907
1570646137.5453434,2019-10-09 12:35:37,6852.0,0.0055160000920295715,0.020882999524474144,0.009170999750494957,0.050613000988960266,0.2896000146865845,-0.9369999766349792,-0.15379999577999115
1570646137.5453434,2019-10-09 12:35:37,6853.0,0.005450000055134296,0.020729999989271164,0.009212000295519829,0.050416000187397,0.2694999873638153,-0.9282000064849854,-0.15970000624656677
1570646137.5453434,2019-10-09 12:35:37,6854.0,0.00548599986359477,0.020625000819563866,0.009177999570965767,0.050241999328136444,0.274399995803833,-0.9320999979972839,-0.155799999833107
1570646137.5453434,2019-10-09 12:35:37,6855.0,0.005493000149726868,0.020596999675035477,0.00915099959820509,0.05018499866127968,0.29100000858306885,-0.9413999915122986,-0.15039999783039093
1570646137.5453434,2019-10-09 12:35:37,6856.0,0.005489000119268894,0.020576000213623047,0.009201000444591045,0.05012299865484238,0.28999999165534973,-0.9189000129699707,-0.15139999985694885
1570646137.5453434,2019-10-09 12:35:37,6857.0,0.005518000107258558,0.0205060001462698,0.009209999814629555,0.05005599930882454,0.29249998927116394,-0.9169999957084656,-0.1509000062942505
1570646137.5453434,2019-10-09 12:35:37,6858.0,0.005475000012665987,0.02047800086438656,0.009159999899566174,0.04989200085401535,0.29100000858306885,-0.9169999957084656,-0.15870000422000885
1570646137.5453434,2019-10-09 12:35:37,6859.0,0.005520999897271395,0.020440999418497086,0.009146000258624554,0.04984800145030022,0.30219998955726624,-0.9169999957084656,-0.15719999372959137
1570646137.5453434,2019-10-09 12:35:37,6860.0,0.005501999985426664,0.0204709991812706,0.009170999750494957,0.04973100125789642,0.31200000643730164,-0.9136000275611877,-0.15770000219345093
1570646137.5453434,2019-10-09 12:35:37,6861.0,0.005470000207424164,0.020440999418497086,0.009120999835431576,0.04967400059103966,0.3075999915599823,-0.9189000129699707,-0.15330000221729279
1570646137.5453434,2019-10-09 12:35:37,6862.0,0.005489000119268894,0.020395999774336815,0.009158000349998474,0.04959600046277046,0.3012999892234802,-0.9164999723434448,-0.14990000426769257
1570646137.5453434,2019-10-09 12:35:37,6863.0,0.005481999833136797,0.020368000492453575,0.009115999564528465,0.049626000225543976,0.31450000405311584,-0.9336000084877014,-0.14790000021457672
1570646137.5453434,2019-10-09 12:35:37,6864.0,0.005504999775439501,0.020416000857949257,0.009166999720036983,0.04962199926376343,0.3037000000476837,-0.9136000275611877,-0.14890000224113464
1570646137.5463424,2019-10-09 12:35:37,6865.0,0.005508999805897474,0.020437000319361687,0.009107000194489956,0.04964200034737587,0.30320000648498535,-0.9014000296592712,-0.1436000019311905
1570646137.5463424,2019-10-09 12:35:37,6866.0,0.00545400008559227,0.02049200050532818,0.009169000200927258,0.04974500089883804,0.31049999594688416,-0.8935999870300293,-0.14399999380111694
1570646137.5463424,2019-10-09 12:35:37,6867.0,0.005499999970197678,0.02045300044119358,0.009180000051856041,0.04970899969339371,0.3319999873638153,-0.8988999724388123,-0.14650000631809235
1570646137.5463424,2019-10-09 12:35:37,6868.0,0.005468000192195177,0.020444000139832497,0.009196000173687935,0.04972900077700615,0.33980000019073486,-0.8978999853134155,-0.15279999375343323
1570646137.5463424,2019-10-09 12:35:37,6869.0,0.005481999833136797,0.0204709991812706,0.00915099959820509,0.049678999930620193,0.32910001277923584,-0.9106000065803528,-0.15479999780654907
1570646137.5463424,2019-10-09 12:35:37,6870.0,0.005493000149726868,0.020434999838471413,0.00914399977773428,0.049600999802351,0.31790000200271606,-0.9140999913215637,-0.15479999780654907
1570646137.5463424,2019-10-09 12:35:37,6871.0,0.005520999897271395,0.02044600062072277,0.009068000130355358,0.04958299919962883,0.3212999999523163,-0.9009000062942505,-0.15479999780654907
1570646137.5463424,2019-10-09 12:35:37,6872.0,0.005530000198632479,0.020527999848127365,0.009158000349998474,0.04957599937915802,0.322299987077713,-0.8988999724388123,-0.1543000042438507
1570646137.5463424,2019-10-09 12:35:37,6873.0,0.005477000027894974,0.02045699954032898,0.009186999872326851,0.0496629998087883,0.3330000042915344,-0.8960000276565552,-0.15279999375343323
1570646137.5463424,2019-10-09 12:35:37,6874.0,0.005497999954968691,0.0204709991812706,0.009146000258624554,0.04964900016784668,0.33009999990463257,-0.9146000146865845,-0.1509000062942505
1570646137.5463424,2019-10-09 12:35:37,6875.0,0.005526999942958355,0.020493999123573303,0.009065999649465084,0.049557000398635864,0.3109999895095825,-0.9243000149726868,-0.15279999375343323
1570646137.5463424,2019-10-09 12:35:37,6876.0,0.005526999942958355,0.020501000806689262,0.009026999585330486,0.049400001764297485,0.30320000648498535,-0.9199000000953674,-0.15870000422000885
1570646137.5463424,2019-10-09 12:35:37,6877.0,0.0055160000920295715,0.020493999123573303,0.009031999856233597,0.04937199875712395,0.31349998712539673,-0.9082000255584717,-0.16599999368190765
1570646137.547338,2019-10-09 12:35:37,6878.0,0.005510999821126461,0.020586000755429268,0.009057000279426575,0.049417998641729355,0.3285999894142151,-0.9077000021934509,-0.1688999980688095
1570646137.547338,2019-10-09 12:35:37,6879.0,0.005557000171393156,0.02059900015592575,0.009025000035762787,0.049476999789476395,0.3140000104904175,-0.9179999828338623,-0.1688999980688095
1570646138.077672,2019-10-09 12:35:38,6880.0,0.005576000083237886,0.020663000643253326,0.009011000394821167,0.04947499930858612,0.29789999127388,-0.9204000234603882,-0.16359999775886536
1570646138.077672,2019-10-09 12:35:38,6881.0,0.005561999976634979,0.020647000521421432,0.008985999971628189,0.04951399937272072,0.29980000853538513,-0.9193999767303467,-0.15919999778270721
1570646138.077672,2019-10-09 12:35:38,6882.0,0.005547999870032072,0.02063800022006035,0.00904100015759468,0.04963799938559532,0.3163999915122986,-0.9121000170707703,-0.15919999778270721
1570646138.077672,2019-10-09 12:35:38,6883.0,0.005566000007092953,0.02065899968147278,0.009015999734401703,0.04971799999475479,0.3280999958515167,-0.9115999937057495,-0.16019999980926514
1570646138.077672,2019-10-09 12:35:38,6884.0,0.0055599999614059925,0.02070000022649765,0.0090549997985363,0.04986200109124184,0.31839999556541443,-0.9169999957084656,-0.156700000166893
1570646138.077672,2019-10-09 12:35:38,6885.0,0.005566000007092953,0.02068600058555603,0.009064000099897385,0.04986000061035156,0.301800012588501,-0.9154999852180481,-0.15379999577999115
1570646138.077672,2019-10-09 12:35:38,6886.0,0.00559200020506978,0.020723000168800354,0.009088999591767788,0.049942001700401306,0.30709999799728394,-0.913100004196167,-0.15719999372959137
1570646138.077672,2019-10-09 12:35:38,6887.0,0.005553000140935183,0.020755000412464142,0.009139000438153744,0.05014999955892563,0.3188000023365021,-0.9136000275611877,-0.1615999937057495
1570646138.077672,2019-10-09 12:35:38,6888.0,0.005594000220298767,0.020771000534296036,0.009100000374019146,0.0501910001039505,0.31790000200271606,-0.9146000146865845,-0.163100004196167
1570646138.077672,2019-10-09 12:35:38,6889.0,0.005572999827563763,0.02084200084209442,0.00915099959820509,0.05025999993085861,0.3109999895095825,-0.9204000234603882,-0.15970000624656677
1570646138.077672,2019-10-09 12:35:38,6890.0,0.005541000049561262,0.020820999518036842,0.00913699995726347,0.050377000123262405,0.3140000104904175,-0.9351000189781189,-0.155799999833107
1570646138.077672,2019-10-09 12:35:38,6891.0,0.005555000156164169,0.020824000239372253,0.009182999841868877,0.05048000067472458,0.3163999915122986,-0.9262999892234802,-0.16060000658035278
1570646138.077672,2019-10-09 12:35:38,6892.0,0.0055959997698664665,0.020788999274373055,0.009238000027835369,0.050609998404979706,0.31150001287460327,-0.9053000211715698,-0.1615999937057495
1570646138.077672,2019-10-09 12:35:38,6893.0,0.005570999812334776,0.02084200084209442,0.009228999726474285,0.050732001662254333,0.3061999976634979,-0.9092000126838684,-0.163100004196167
1570646138.077672,2019-10-09 12:35:38,6894.0,0.005619000177830458,0.020882999524474144,0.009258000180125237,0.0507269985973835,0.2904999852180481,-0.9169999957084656,-0.16599999368190765
1570646138.077672,2019-10-09 12:35:38,6895.0,0.0056050000712275505,0.020896999165415764,0.00927400030195713,0.05071999877691269,0.29249998927116394,-0.9291999936103821,-0.15870000422000885
1570646138.077672,2019-10-09 12:35:38,6896.0,0.005619000177830458,0.020898999646306038,0.009314999915659428,0.05083199962973595,0.2930000126361847,-0.9140999913215637,-0.15870000422000885
1570646138.077672,2019-10-09 12:35:38,6897.0,0.005640000104904175,0.020927000790834427,0.009353999979794025,0.050925999879837036,0.28369998931884766,-0.9115999937057495,-0.1581999957561493
1570646138.077672,2019-10-09 12:35:38,6898.0,0.005650999955832958,0.02094000019133091,0.00937000010162592,0.05100199952721596,0.2992999851703644,-0.9204000234603882,-0.16210000216960907
1570646138.077672,2019-10-09 12:35:38,6899.0,0.005625999998301268,0.020907999947667122,0.009363999590277672,0.05115099996328354,0.3163999915122986,-0.9204000234603882,-0.16259999573230743
1570646138.077672,2019-10-09 12:35:38,6900.0,0.005594000220298767,0.020969999954104424,0.009414000436663628,0.05123300105333328,0.3237000107765198,-0.9061999917030334,-0.163100004196167
1570646138.077672,2019-10-09 12:35:38,6901.0,0.005628000013530254,0.021025000140070915,0.00945299956947565,0.0512470006942749,0.30959999561309814,-0.9042999744415283,-0.1655000001192093
1570646138.077672,2019-10-09 12:35:38,6902.0,0.005609999876469374,0.020997999235987663,0.009464000351727009,0.051346998661756516,0.298799991607666,-0.9199000000953674,-0.1665000021457672
1570646138.077672,2019-10-09 12:35:38,6903.0,0.0056329998187720776,0.02101599983870983,0.009461999870836735,0.05147299915552139,0.29980000853538513,-0.9146000146865845,-0.16259999573230743
1570646138.077672,2019-10-09 12:35:38,6904.0,0.0056489999406039715,0.02103699930012226,0.009467000141739845,0.05150999873876572,0.3091000020503998,-0.8964999914169312,-0.16459999978542328
1570646138.077672,2019-10-09 12:35:38,6905.0,0.005671999882906675,0.021080000326037407,0.009422999806702137,0.0515189990401268,0.31299999356269836,-0.8984000086784363,-0.1679999977350235
1570646138.077672,2019-10-09 12:35:38,6906.0,0.005644000135362148,0.021098000928759575,0.009444000199437141,0.051541998982429504,0.3174000084400177,-0.9082000255584717,-0.1655000001192093
1570646138.077672,2019-10-09 12:35:38,6907.0,0.005673999898135662,0.021144000813364983,0.009461999870836735,0.05159499868750572,0.30219998955726624,-0.9154999852180481,-0.16750000417232513
1570646138.077672,2019-10-09 12:35:38,6908.0,0.005673999898135662,0.021152999252080917,0.009402000345289707,0.051635999232530594,0.30079999566078186,-0.9390000104904175,-0.16060000658035278
1570646138.077672,2019-10-09 12:35:38,6909.0,0.005667000077664852,0.021216999739408493,0.009438999928534031,0.051771000027656555,0.31049999594688416,-0.9258000254631042,-0.16060000658035278
1570646138.0786693,2019-10-09 12:35:38,6910.0,0.005704000126570463,0.021239999681711197,0.009441000409424305,0.05182100087404251,0.3163999915122986,-0.9164999723434448,-0.15870000422000885
1570646138.0786693,2019-10-09 12:35:38,6911.0,0.00571299996227026,0.021259000524878502,0.009460000321269035,0.05186000093817711,0.31839999556541443,-0.9018999934196472,-0.15620000660419464
1570646138.7289505,2019-10-09 12:35:38,6912.0,0.005640000104904175,0.021265000104904175,0.00944599974900484,0.05171100050210953,0.31150001287460327,-0.8970000147819519,-0.155799999833107
1570646138.826671,2019-10-09 12:35:38,6913.0,0.005547999870032072,0.02108200080692768,0.009477999992668629,0.0513949990272522,0.3086000084877014,-0.9199000000953674,-0.16599999368190765
1570646138.826671,2019-10-09 12:35:38,6914.0,0.005572999827563763,0.020901000127196312,0.009417999535799026,0.051107000559568405,0.29440000653266907,-0.9286999702453613,-0.16850000619888306
1570646138.826671,2019-10-09 12:35:38,6915.0,0.0055069997906684875,0.020764000713825226,0.009393000043928623,0.05091699957847595,0.2842000126838684,-0.9223999977111816,-0.16259999573230743
1570646138.826671,2019-10-09 12:35:38,6916.0,0.005547999870032072,0.020661000162363052,0.009393000043928623,0.050852999091148376,0.2915000021457672,-0.9169999957084656,-0.16060000658035278
1570646138.826671,2019-10-09 12:35:38,6917.0,0.005539000034332275,0.020603999495506287,0.009366000071167946,0.050932999700307846,0.2953999936580658,-0.9125999808311462,-0.16500000655651093
1570646138.826671,2019-10-09 12:35:38,6918.0,0.005566000007092953,0.02057899907231331,0.00945299956947565,0.05093099921941757,0.29490000009536743,-0.9272000193595886,-0.16459999978542328
1570646138.826671,2019-10-09 12:35:38,6919.0,0.005549999885261059,0.020555999130010605,0.009344999678432941,0.05087599903345108,0.2793000042438507,-0.9336000084877014,-0.16500000655651093
1570646138.826671,2019-10-09 12:35:38,6920.0,0.0055320002138614655,0.02052599936723709,0.009356999769806862,0.05076099932193756,0.26809999346733093,-0.9365000128746033,-0.16500000655651093
1570646138.826671,2019-10-09 12:35:38,6921.0,0.0055320002138614655,0.020522000268101692,0.009398000314831734,0.05075899884104729,0.27730000019073486,-0.9262999892234802,-0.1703999936580658
1570646138.826671,2019-10-09 12:35:38,6922.0,0.005572999827563763,0.0205329991877079,0.009386000223457813,0.05074299871921539,0.28760001063346863,-0.9193999767303467,-0.17630000412464142
1570646138.826671,2019-10-09 12:35:38,6923.0,0.005518000107258558,0.020479999482631683,0.00945299956947565,0.05076099932193756,0.29350000619888306,-0.9146000146865845,-0.1776999980211258
1570646138.826671,2019-10-09 12:35:38,6924.0,0.005594000220298767,0.0204709991812706,0.009399999864399433,0.05075899884104729,0.2890999913215637,-0.9301999807357788,-0.17630000412464142
1570646138.8276837,2019-10-09 12:35:38,6925.0,0.00558000011369586,0.020382000133395195,0.009455000050365925,0.050790999084711075,0.28119999170303345,-0.9286999702453613,-0.17430000007152557
1570646138.8276837,2019-10-09 12:35:38,6926.0,0.005613999906927347,0.020476000383496284,0.009503000415861607,0.050870999693870544,0.28369998931884766,-0.9229000210762024,-0.16990000009536743
1570646138.8276837,2019-10-09 12:35:38,6927.0,0.0055229999125003815,0.020508000627160072,0.009511999785900116,0.0509830005466938,0.2865999937057495,-0.9193999767303467,-0.17190000414848328
1570646138.8276837,2019-10-09 12:35:38,6928.0,0.00558000011369586,0.02052599936723709,0.009455000050365925,0.051033999770879745,0.2865999937057495,-0.9169999957084656,-0.17090000212192535
1570646138.8276837,2019-10-09 12:35:38,6929.0,0.005601000040769577,0.02055099979043007,0.009429999627172947,0.05102900043129921,0.28519999980926514,-0.9169999957084656,-0.17090000212192535
1570646138.8276837,2019-10-09 12:35:38,6930.0,0.005563999991863966,0.020555999130010605,0.009432000108063221,0.051040999591350555,0.2842000126838684,-0.9175000190734863,-0.17139999568462372
1570646138.8276837,2019-10-09 12:35:38,6931.0,0.005572999827563763,0.020531000569462776,0.00947600044310093,0.05112500116229057,0.2782999873161316,-0.9169999957084656,-0.17679999768733978
1570646138.8276837,2019-10-09 12:35:38,6932.0,0.005576000083237886,0.02054399996995926,0.009487000294029713,0.05114100128412247,0.2831999957561493,-0.9218999743461609,-0.17579999566078186
1570646138.8276837,2019-10-09 12:35:38,6933.0,0.005520999897271395,0.02054399996995926,0.009511999785900116,0.05121900141239166,0.2870999872684479,-0.9390000104904175,-0.1688999980688095
1570646138.8276837,2019-10-09 12:35:38,6934.0,0.0056119998916983604,0.02056499943137169,0.009500999934971333,0.05132399871945381,0.27639999985694885,-0.9404000043869019,-0.1655000001192093
1570646138.8276837,2019-10-09 12:35:38,6935.0,0.005568999797105789,0.020617999136447906,0.009488999843597412,0.05143899843096733,0.2685999870300293,-0.9169999957084656,-0.16940000653266907
1570646138.8276837,2019-10-09 12:35:38,6936.0,0.005572999827563763,0.02059900015592575,0.009538000449538231,0.05149799957871437,0.2939000129699707,-0.9082000255584717,-0.16990000009536743
1570646138.8276837,2019-10-09 12:35:38,6937.0,0.005588999949395657,0.020566999912261963,0.009572000242769718,0.051555998623371124,0.29789999127388,-0.9282000064849854,-0.1688999980688095
1570646138.8276837,2019-10-09 12:35:38,6938.0,0.005594000220298767,0.020596999675035477,0.009507999755442142,0.05141099914908409,0.25290000438690186,-0.9404000043869019,-0.17870000004768372
1570646138.8276837,2019-10-09 12:35:38,6939.0,0.005617000162601471,0.020649999380111694,0.009471000172197819,0.05127599835395813,0.24120000004768372,-0.9423999786376953,-0.17579999566078186
1570646138.8276837,2019-10-09 12:35:38,6940.0,0.00558000011369586,0.020670000463724136,0.009573999792337418,0.051375001668930054,0.2572999894618988,-0.9419000148773193,-0.17139999568462372
1570646138.8276837,2019-10-09 12:35:38,6941.0,0.005607999861240387,0.020649999380111694,0.009488999843597412,0.05147099867463112,0.2694999873638153,-0.9330999851226807,-0.17630000412464142
1570646138.8276837,2019-10-09 12:35:38,6942.0,0.005568999797105789,0.02072799950838089,0.00955399964004755,0.05154399946331978,0.2831999957561493,-0.9253000020980835,-0.1703999936580658
1570646138.8276837,2019-10-09 12:35:38,6943.0,0.005628000013530254,0.020718000829219818,0.009572000242769718,0.05167900025844574,0.2930000126361847,-0.9140999913215637,-0.16060000658035278
1570646139.3803577,2019-10-09 12:35:39,6944.0,0.0056050000712275505,0.020739000290632248,0.00953300017863512,0.05178900063037872,0.2930000126361847,-0.8978999853134155,-0.15479999780654907
1570646139.3803577,2019-10-09 12:35:39,6945.0,0.0056329998187720776,0.020785000175237656,0.009603999555110931,0.05194000154733658,0.30959999561309814,-0.9140999913215637,-0.14890000224113464
1570646139.3803577,2019-10-09 12:35:39,6946.0,0.00559200020506978,0.020781999453902245,0.009658999741077423,0.05202300101518631,0.3091000020503998,-0.9307000041007996,-0.15330000221729279
1570646139.3803577,2019-10-09 12:35:39,6947.0,0.005644000135362148,0.020831000059843063,0.009650000371038914,0.05211900174617767,0.3140000104904175,-0.9071999788284302,-0.163100004196167
1570646139.3803577,2019-10-09 12:35:39,6948.0,0.0056119998916983604,0.020817000418901443,0.009588000364601612,0.05229699984192848,0.31450000405311584,-0.8910999894142151,-0.16750000417232513
1570646139.3803577,2019-10-09 12:35:39,6949.0,0.005625999998301268,0.02085600048303604,0.00963599979877472,0.05228099972009659,0.3075999915599823,-0.9038000106811523,-0.1679999977350235
1570646139.3803577,2019-10-09 12:35:39,6950.0,0.005625999998301268,0.020912999287247658,0.009684000164270401,0.05238199979066849,0.30320000648498535,-0.9272000193595886,-0.16750000417232513
1570646139.3803577,2019-10-09 12:35:39,6951.0,0.005625999998301268,0.02085999958217144,0.009740999899804592,0.05241899937391281,0.3041999936103821,-0.9282000064849854,-0.16459999978542328
1570646139.3803577,2019-10-09 12:35:39,6952.0,0.005688000004738569,0.02088100090622902,0.009713999927043915,0.05243000015616417,0.3237000107765198,-0.9067000150680542,-0.16210000216960907
1570646139.3803577,2019-10-09 12:35:39,6953.0,0.005671999882906675,0.020930999889969826,0.009700000286102295,0.0525050014257431,0.336899995803833,-0.8925999999046326,-0.1665000021457672
1570646139.3803577,2019-10-09 12:35:39,6954.0,0.005685000214725733,0.02103699930012226,0.009658999741077423,0.05246699973940849,0.302700012922287,-0.8823000192642212,-0.16940000653266907
1570646139.3803577,2019-10-09 12:35:39,6955.0,0.005700999870896339,0.020999999716877937,0.00962899997830391,0.05246900022029877,0.2831999957561493,-0.9140999913215637,-0.15970000624656677
1570646139.3803577,2019-10-09 12:35:39,6956.0,0.005681000184267759,0.021050000563263893,0.009665999561548233,0.052570000290870667,0.3003000020980835,-0.9473000168800354,-0.15620000660419464
1570646139.3803577,2019-10-09 12:35:39,6957.0,0.005671999882906675,0.021077999845147133,0.009717999957501888,0.052747998386621475,0.3012999892234802,-0.926800012588501,-0.15770000219345093
1570646139.3803577,2019-10-09 12:35:39,6958.0,0.005700999870896339,0.021090999245643616,0.009746000170707703,0.05296799913048744,0.29589998722076416,-0.9169999957084656,-0.1581999957561493
1570646139.3803577,2019-10-09 12:35:39,6959.0,0.005671999882906675,0.0210960004478693,0.009739000350236893,0.053075000643730164,0.2842000126838684,-0.9146000146865845,-0.155799999833107
1570646139.3803577,2019-10-09 12:35:39,6960.0,0.005716999992728233,0.021188000217080116,0.009809999726712704,0.05330200120806694,0.2930000126361847,-0.9042999744415283,-0.15770000219345093
1570646139.381355,2019-10-09 12:35:39,6961.0,0.005685000214725733,0.021144000813364983,0.009808000177145004,0.05343199893832207,0.30570000410079956,-0.9208999872207642,-0.16210000216960907
1570646139.381355,2019-10-09 12:35:39,6962.0,0.005710999947041273,0.021239999681711197,0.009805000387132168,0.053366001695394516,0.2939000129699707,-0.9320999979972839,-0.16210000216960907
1570646139.381355,2019-10-09 12:35:39,6963.0,0.005694999825209379,0.021232999861240387,0.009813999757170677,0.053286001086235046,0.2939000129699707,-0.9243000149726868,-0.15870000422000885
1570646139.381355,2019-10-09 12:35:39,6964.0,0.005710999947041273,0.021191999316215515,0.009769000113010406,0.05318799987435341,0.29589998722076416,-0.913100004196167,-0.1615999937057495
1570646139.381355,2019-10-09 12:35:39,6965.0,0.005690000019967556,0.021020999178290367,0.00977999996393919,0.052928999066352844,0.2842000126838684,-0.9204000234603882,-0.16850000619888306
1570646139.381355,2019-10-09 12:35:39,6966.0,0.005669000092893839,0.020901000127196312,0.009752999991178513,0.05270500108599663,0.2865999937057495,-0.9253000020980835,-0.1703999936580658
1570646139.381355,2019-10-09 12:35:39,6967.0,0.005667000077664852,0.02079400047659874,0.00978699978441,0.05260400101542473,0.2904999852180481,-0.9419000148773193,-0.1703999936580658
1570646139.381355,2019-10-09 12:35:39,6968.0,0.005696999840438366,0.020741000771522522,0.009797999635338783,0.05258600041270256,0.2964000105857849,-0.9276999831199646,-0.16850000619888306
1570646139.381355,2019-10-09 12:35:39,6969.0,0.005594000220298767,0.020764000713825226,0.009740999899804592,0.05259700119495392,0.30809998512268066,-0.9125999808311462,-0.16699999570846558
1570646139.381355,2019-10-09 12:35:39,6970.0,0.005650999955832958,0.02070000022649765,0.00977800041437149,0.05255600064992905,0.302700012922287,-0.913100004196167,-0.16259999573230743
1570646139.381355,2019-10-09 12:35:39,6971.0,0.0056420001201331615,0.020697999745607376,0.009708999656140804,0.05248500034213066,0.29980000853538513,-0.9179999828338623,-0.16259999573230743
1570646139.381355,2019-10-09 12:35:39,6972.0,0.005628000013530254,0.020791999995708466,0.009677000343799591,0.052420999854803085,0.3086000084877014,-0.9214000105857849,-0.15919999778270721
1570646139.381355,2019-10-09 12:35:39,6973.0,0.005663000047206879,0.02070700004696846,0.009603999555110931,0.0522489994764328,0.31049999594688416,-0.9369999766349792,-0.15139999985694885
1570646139.381355,2019-10-09 12:35:39,6974.0,0.005671999882906675,0.020702000707387924,0.009588000364601612,0.05212999880313873,0.3158999979496002,-0.9394999742507935,-0.14259999990463257
1570646139.381355,2019-10-09 12:35:39,6975.0,0.005673999898135662,0.020771000534296036,0.00952799990773201,0.05200200155377388,0.30959999561309814,-0.9307000041007996,-0.14399999380111694
1570646140.0302036,2019-10-09 12:35:40,6976.0,0.005698999855667353,0.020764000713825226,0.0095210000872612,0.052003998309373856,0.298799991607666,-0.9096999764442444,-0.14749999344348907
1570646140.1199644,2019-10-09 12:35:40,6977.0,0.005694999825209379,0.020827999338507652,0.009488999843597412,0.05187800154089928,0.29100000858306885,-0.8939999938011169,-0.16019999980926514
1570646140.1199644,2019-10-09 12:35:40,6978.0,0.0057470002211630344,0.020850999280810356,0.00954199954867363,0.05198799818754196,0.31049999594688416,-0.8871999979019165,-0.16990000009536743
1570646140.1199644,2019-10-09 12:35:40,6979.0,0.005778999999165535,0.020885000005364418,0.009479999542236328,0.052003998309373856,0.3353999853134155,-0.8999000191688538,-0.17090000212192535
1570646140.1199644,2019-10-09 12:35:40,6980.0,0.0057379999198019505,0.02094000019133091,0.009468999691307545,0.05197399854660034,0.3452000021934509,-0.9067000150680542,-0.16699999570846558
1570646140.1199644,2019-10-09 12:35:40,6981.0,0.005814000032842159,0.02101599983870983,0.00945299956947565,0.05199500173330307,0.3540000021457672,-0.8988999724388123,-0.16750000417232513
1570646140.1199644,2019-10-09 12:35:40,6982.0,0.005729000084102154,0.02112100087106228,0.009421000257134438,0.05201299861073494,0.35839998722076416,-0.8970000147819519,-0.16850000619888306
1570646140.1199644,2019-10-09 12:35:40,6983.0,0.005758999846875668,0.021136999130249023,0.00939599983394146,0.052094001322984695,0.35690000653266907,-0.88919997215271,-0.16060000658035278
1570646140.1199644,2019-10-09 12:35:40,6984.0,0.005739999935030937,0.021184999495744705,0.00937500037252903,0.05215099826455116,0.3490999937057495,-0.8925999999046326,-0.14990000426769257
1570646140.1199644,2019-10-09 12:35:40,6985.0,0.005791000090539455,0.021198999136686325,0.009386000223457813,0.05219699814915657,0.3495999872684479,-0.899399995803833,-0.1445000022649765
1570646140.1199644,2019-10-09 12:35:40,6986.0,0.0057680001482367516,0.021259000524878502,0.009428000077605247,0.052347999066114426,0.36079999804496765,-0.8910999894142151,-0.14790000021457672
1570646140.1199644,2019-10-09 12:35:40,6987.0,0.005760999862104654,0.021324999630451202,0.009499000385403633,0.052570000290870667,0.37400001287460327,-0.8765000104904175,-0.15189999341964722
1570646140.1199644,2019-10-09 12:35:40,6988.0,0.0057680001482367516,0.021292999386787415,0.009488999843597412,0.05272499844431877,0.36230000853538513,-0.8730000257492065,-0.15189999341964722
1570646140.1199644,2019-10-09 12:35:40,6989.0,0.0057680001482367516,0.021338999271392822,0.009511999785900116,0.05287599936127663,0.34279999136924744,-0.8755000233650208,-0.15189999341964722
1570646140.1199644,2019-10-09 12:35:40,6990.0,0.005760999862104654,0.0213639996945858,0.009518999606370926,0.052935998886823654,0.3285999894142151,-0.8862000107765198,-0.15479999780654907
1570646140.1199644,2019-10-09 12:35:40,6991.0,0.005776999983936548,0.021389000117778778,0.009599000215530396,0.05302499979734421,0.3407999873161316,-0.8916000127792358,-0.15970000624656677
1570646140.1199644,2019-10-09 12:35:40,6992.0,0.0057749999687075615,0.021395999938249588,0.009550999850034714,0.05330900102853775,0.350600004196167,-0.8960000276565552,-0.16259999573230743
1570646140.120961,2019-10-09 12:35:40,6993.0,0.005723999813199043,0.021393999457359314,0.009603999555110931,0.05338200181722641,0.32760000228881836,-0.9110999703407288,-0.163100004196167
1570646140.120961,2019-10-09 12:35:40,6994.0,0.005818000063300133,0.02143700048327446,0.009518999606370926,0.05344599857926369,0.29789999127388,-0.9297000169754028,-0.16359999775886536
1570646140.120961,2019-10-09 12:35:40,6995.0,0.005841000005602837,0.0214649997651577,0.0095210000872612,0.053467001765966415,0.28369998931884766,-0.9369999766349792,-0.16599999368190765
1570646140.120961,2019-10-09 12:35:40,6996.0,0.005803999956697226,0.021515000611543655,0.009500999934971333,0.05345800146460533,0.2831999957561493,-0.9340999722480774,-0.16599999368190765
1570646140.120961,2019-10-09 12:35:40,6997.0,0.005795000120997429,0.021571999415755272,0.009500999934971333,0.05360199883580208,0.2904999852180481,-0.9253000020980835,-0.163100004196167
1570646140.120961,2019-10-09 12:35:40,6998.0,0.005849999841302633,0.021609000861644745,0.009523999877274036,0.05361799895763397,0.27730000019073486,-0.9179999828338623,-0.16410000622272491
1570646140.120961,2019-10-09 12:35:40,6999.0,0.005816000048071146,0.021619999781250954,0.009495999664068222,0.05371199920773506,0.2587999999523163,-0.9320999979972839,-0.1703999936580658
1570646140.120961,2019-10-09 12:35:40,7000.0,0.005826999898999929,0.021661000326275826,0.009510000236332417,0.05373699963092804,0.2720000147819519,-0.9340999722480774,-0.18549999594688416
1570646140.120961,2019-10-09 12:35:40,7001.0,0.00583200016990304,0.021668000146746635,0.00953499972820282,0.053787000477313995,0.2890999913215637,-0.9359999895095825,-0.19920000433921814
1570646140.120961,2019-10-09 12:35:40,7002.0,0.005861999932676554,0.02161099947988987,0.009565000422298908,0.05399800091981888,0.288100004196167,-0.9336000084877014,-0.19869999587535858
1570646140.120961,2019-10-09 12:35:40,7003.0,0.005853000096976757,0.02166599966585636,0.009606000036001205,0.05407100170850754,0.274399995803833,-0.9369999766349792,-0.1973000019788742
1570646140.120961,2019-10-09 12:35:40,7004.0,0.00583200016990304,0.021707000210881233,0.009565000422298908,0.05414000153541565,0.2777999937534332,-0.9326000213623047,-0.19429999589920044
1570646140.120961,2019-10-09 12:35:40,7005.0,0.005834000185132027,0.02167700044810772,0.009638000279664993,0.054308999329805374,0.2915000021457672,-0.9282000064849854,-0.19339999556541443
1570646140.120961,2019-10-09 12:35:40,7006.0,0.005822999868541956,0.021730000153183937,0.00967899989336729,0.05441899970173836,0.288100004196167,-0.9218999743461609,-0.18950000405311584
1570646140.120961,2019-10-09 12:35:40,7007.0,0.00587099976837635,0.02177399955689907,0.009650000371038914,0.05441899970173836,0.2734000086784363,-0.9286999702453613,-0.18459999561309814
1570646140.6844547,2019-10-09 12:35:40,7008.0,0.005849999841302633,0.021748000755906105,0.009650000371038914,0.05439800024032593,0.2705000042915344,-0.9307000041007996,-0.18070000410079956
1570646140.6844547,2019-10-09 12:35:40,7009.0,0.0058639999479055405,0.021727999672293663,0.00962700042873621,0.05425199866294861,0.2705000042915344,-0.9247999787330627,-0.17820000648498535
1570646140.6844547,2019-10-09 12:35:40,7010.0,0.005849999841302633,0.02167999930679798,0.009560000151395798,0.05398400127887726,0.274399995803833,-0.9297000169754028,-0.18160000443458557
1570646140.6844547,2019-10-09 12:35:40,7011.0,0.005752000026404858,0.02152400091290474,0.009583000093698502,0.053700000047683716,0.2831999957561493,-0.9282000064849854,-0.18310000002384186
1570646140.6844547,2019-10-09 12:35:40,7012.0,0.005671999882906675,0.02135699987411499,0.009538000449538231,0.05349000170826912,0.2856000065803528,-0.9214000105857849,-0.18119999766349792
1570646140.6844547,2019-10-09 12:35:40,7013.0,0.005762999877333641,0.02125599980354309,0.009530999697744846,0.05342999845743179,0.2847000062465668,-0.9185000061988831,-0.1753000020980835
1570646140.6844547,2019-10-09 12:35:40,7014.0,0.005797999911010265,0.02119000069797039,0.009583000093698502,0.0534139983355999,0.2865999937057495,-0.9106000065803528,-0.17090000212192535
1570646140.6844547,2019-10-09 12:35:40,7015.0,0.0057379999198019505,0.021172000095248222,0.009566999971866608,0.053394000977277756,0.28760001063346863,-0.9032999873161316,-0.16990000009536743
1570646140.6844547,2019-10-09 12:35:40,7016.0,0.005727000068873167,0.02117599919438362,0.009602000005543232,0.05339999869465828,0.2930000126361847,-0.9067000150680542,-0.17430000007152557
1570646140.6844547,2019-10-09 12:35:40,7017.0,0.00571299996227026,0.02111000008881092,0.009566999971866608,0.053300000727176666,0.30079999566078186,-0.9164999723434448,-0.17970000207424164
1570646140.6844547,2019-10-09 12:35:40,7018.0,0.005708000157028437,0.02112100087106228,0.009557999670505524,0.05324900150299072,0.30320000648498535,-0.9185000061988831,-0.18209999799728394
1570646140.6844547,2019-10-09 12:35:40,7019.0,0.005710999947041273,0.021045999601483345,0.00952600035816431,0.053272001445293427,0.29829999804496765,-0.9110999703407288,-0.18410000205039978
1570646140.6844547,2019-10-09 12:35:40,7020.0,0.005760999862104654,0.02104800008237362,0.009503000415861607,0.05320100113749504,0.2930000126361847,-0.9018999934196472,-0.18310000002384186
1570646140.6844547,2019-10-09 12:35:40,7021.0,0.00571299996227026,0.021074999123811722,0.00953999999910593,0.05311699956655502,0.2904999852180481,-0.9061999917030334,-0.18359999358654022
1570646140.6844547,2019-10-09 12:35:40,7022.0,0.005733000114560127,0.021087000146508217,0.009511999785900116,0.05315599963068962,0.28610000014305115,-0.9193999767303467,-0.18649999797344208
1570646140.6844547,2019-10-09 12:35:40,7023.0,0.005781999789178371,0.02110699936747551,0.009495999664068222,0.053144000470638275,0.2896000146865845,-0.9355000257492065,-0.1851000040769577
1570646140.6844547,2019-10-09 12:35:40,7024.0,0.005743000190705061,0.02112399972975254,0.00947600044310093,0.05316000059247017,0.28999999165534973,-0.9218999743461609,-0.18209999799728394
1570646140.6844547,2019-10-09 12:35:40,7025.0,0.0057379999198019505,0.02114200033247471,0.009434999898076057,0.05317400023341179,0.28760001063346863,-0.9185000061988831,-0.17870000004768372
1570646140.6844547,2019-10-09 12:35:40,7026.0,0.005770000163465738,0.021165000274777412,0.009456999599933624,0.05311699956655502,0.2847000062465668,-0.9140999913215637,-0.17720000445842743
1570646140.6844547,2019-10-09 12:35:40,7027.0,0.005778999999165535,0.02114200033247471,0.009499000385403633,0.053029999136924744,0.2870999872684479,-0.9146000146865845,-0.18209999799728394
1570646140.6844547,2019-10-09 12:35:40,7028.0,0.005739999935030937,0.02112399972975254,0.00939599983394146,0.05303199961781502,0.288100004196167,-0.9229000210762024,-0.18649999797344208
1570646140.6844547,2019-10-09 12:35:40,7029.0,0.005758999846875668,0.02114900015294552,0.00938200019299984,0.0529399998486042,0.28519999980926514,-0.9258000254631042,-0.18649999797344208
1570646140.6844547,2019-10-09 12:35:40,7030.0,0.0057470002211630344,0.0211350005120039,0.00945299956947565,0.05292699858546257,0.2842000126838684,-0.9154999852180481,-0.18649999797344208
1570646140.6844547,2019-10-09 12:35:40,7031.0,0.005754000041633844,0.021159999072551727,0.009432000108063221,0.052976999431848526,0.2890999913215637,-0.9061999917030334,-0.1875
1570646140.6844547,2019-10-09 12:35:40,7032.0,0.005733000114560127,0.021184999495744705,0.009464000351727009,0.0530799999833107,0.2915000021457672,-0.9115999937057495,-0.1889999955892563
1570646140.6844547,2019-10-09 12:35:40,7033.0,0.005776999983936548,0.021165000274777412,0.009415999986231327,0.05308699980378151,0.2919999957084656,-0.9223999977111816,-0.1875
1570646140.6844547,2019-10-09 12:35:40,7034.0,0.0057680001482367516,0.021206000819802284,0.009441000409424305,0.053057000041007996,0.28760001063346863,-0.9253000020980835,-0.18700000643730164
1570646140.6844547,2019-10-09 12:35:40,7035.0,0.005743000190705061,0.0212009996175766,0.009437000378966331,0.0531029999256134,0.28999999165534973,-0.9218999743461609,-0.18799999356269836
1570646140.6844547,2019-10-09 12:35:40,7036.0,0.005758999846875668,0.021237999200820923,0.009409000165760517,0.05316200107336044,0.29350000619888306,-0.9208999872207642,-0.18950000405311584
1570646140.6844547,2019-10-09 12:35:40,7037.0,0.005762999877333641,0.02125599980354309,0.009455000050365925,0.0532039999961853,0.2953999936580658,-0.9115999937057495,-0.18950000405311584
1570646140.6844547,2019-10-09 12:35:40,7038.0,0.005818000063300133,0.021246999502182007,0.009444000199437141,0.05328100174665451,0.29249998927116394,-0.9140999913215637,-0.18950000405311584
1570646140.6854513,2019-10-09 12:35:40,7039.0,0.005797999911010265,0.021324999630451202,0.009491999633610249,0.053325001150369644,0.28999999165534973,-0.9199000000953674,-0.1898999959230423
1570646141.287025,2019-10-09 12:35:41,7040.0,0.005760999862104654,0.02135000005364418,0.009479999542236328,0.05342099815607071,0.2915000021457672,-0.9208999872207642,-0.18649999797344208
1570646141.3757875,2019-10-09 12:35:41,7041.0,0.005783999804407358,0.02135000005364418,0.009511999785900116,0.05353299900889397,0.2890999913215637,-0.9189000129699707,-0.18649999797344208
1570646141.3767865,2019-10-09 12:35:41,7042.0,0.0057749999687075615,0.021393999457359314,0.009538000449538231,0.05360899865627289,0.28859999775886536,-0.9096999764442444,-0.18549999594688416
1570646141.3767865,2019-10-09 12:35:41,7043.0,0.0057749999687075615,0.02137099951505661,0.009538000449538231,0.05363599956035614,0.28859999775886536,-0.9121000170707703,-0.18410000205039978
1570646141.3767865,2019-10-09 12:35:41,7044.0,0.005795000120997429,0.021421000361442566,0.0095210000872612,0.05369799956679344,0.288100004196167,-0.9154999852180481,-0.18799999356269836
1570646141.3767865,2019-10-09 12:35:41,7045.0,0.005809000227600336,0.02137099951505661,0.00952799990773201,0.05375500023365021,0.29100000858306885,-0.92330002784729,-0.18799999356269836
1570646141.3767865,2019-10-09 12:35:41,7046.0,0.005809000227600336,0.02141599915921688,0.009530999697744846,0.05378299951553345,0.2930000126361847,-0.923799991607666,-0.18549999594688416
1570646141.3767865,2019-10-09 12:35:41,7047.0,0.005793000105768442,0.021421000361442566,0.009514999575912952,0.05385399982333183,0.28999999165534973,-0.9179999828338623,-0.18310000002384186
1570646141.3767865,2019-10-09 12:35:41,7048.0,0.005797999911010265,0.02145100012421608,0.009573999792337418,0.053872000426054,0.2930000126361847,-0.9042999744415283,-0.1826000064611435
1570646141.3767865,2019-10-09 12:35:41,7049.0,0.005776999983936548,0.021500999107956886,0.009499000385403633,0.05368899926543236,0.2930000126361847,-0.9061999917030334,-0.18310000002384186
1570646141.3767865,2019-10-09 12:35:41,7050.0,0.005758999846875668,0.021352000534534454,0.009538000449538231,0.05351899936795235,0.2930000126361847,-0.9110999703407288,-0.18359999358654022
1570646141.3767865,2019-10-09 12:35:41,7051.0,0.005727000068873167,0.02122199907898903,0.009495999664068222,0.05330900102853775,0.2919999957084656,-0.9208999872207642,-0.18310000002384186
1570646141.3767865,2019-10-09 12:35:41,7052.0,0.005685000214725733,0.02106199972331524,0.00954199954867363,0.05311200022697449,0.2896000146865845,-0.9208999872207642,-0.18549999594688416
1570646141.3767865,2019-10-09 12:35:41,7053.0,0.0057379999198019505,0.021045999601483345,0.009499000385403633,0.053082000464200974,0.29789999127388,-0.9146000146865845,-0.18459999561309814
1570646141.3767865,2019-10-09 12:35:41,7054.0,0.005681000184267759,0.02100900001823902,0.009623999707400799,0.0530799999833107,0.29589998722076416,-0.9154999852180481,-0.18209999799728394
1570646141.3767865,2019-10-09 12:35:41,7055.0,0.005692000035196543,0.020921999588608742,0.009569999761879444,0.05308900028467178,0.2904999852180481,-0.9077000021934509,-0.18359999358654022
1570646141.3767865,2019-10-09 12:35:41,7056.0,0.005650999955832958,0.020914999768137932,0.009589999914169312,0.05313500016927719,0.2930000126361847,-0.9115999937057495,-0.1851000040769577
1570646141.3767865,2019-10-09 12:35:41,7057.0,0.005650999955832958,0.020914999768137932,0.009588000364601612,0.05313500016927719,0.2969000041484833,-0.9193999767303467,-0.1851000040769577
1570646141.3767865,2019-10-09 12:35:41,7058.0,0.005652999971061945,0.020865000784397125,0.009589999914169312,0.053082000464200974,0.29789999127388,-0.9175000190734863,-0.18459999561309814
1570646141.3767865,2019-10-09 12:35:41,7059.0,0.005716999992728233,0.020819000899791718,0.009619999676942825,0.0530179999768734,0.2930000126361847,-0.9146000146865845,-0.18459999561309814
1570646141.3767865,2019-10-09 12:35:41,7060.0,0.00571299996227026,0.020827999338507652,0.009599000215530396,0.053050000220537186,0.2896000146865845,-0.913100004196167,-0.18209999799728394
1570646141.3777845,2019-10-09 12:35:41,7061.0,0.005700999870896339,0.020833000540733337,0.009612999856472015,0.05311699956655502,0.2827000021934509,-0.9110999703407288,-0.18459999561309814
1570646141.3777845,2019-10-09 12:35:41,7062.0,0.005663000047206879,0.02084200084209442,0.00967899989336729,0.0532039999961853,0.2865999937057495,-0.923799991607666,-0.18019999563694
1570646141.3777845,2019-10-09 12:35:41,7063.0,0.00571999978274107,0.020847000181674957,0.0096859997138381,0.05334100127220154,0.2831999957561493,-0.9247999787330627,-0.17820000648498535
1570646141.3777845,2019-10-09 12:35:41,7064.0,0.00570600014179945,0.020836999639868736,0.009746000170707703,0.053397998213768005,0.28029999136924744,-0.9229000210762024,-0.18070000410079956
1570646141.3777845,2019-10-09 12:35:41,7065.0,0.005644000135362148,0.020907999947667122,0.009681999683380127,0.053405001759529114,0.2842000126838684,-0.9179999828338623,-0.18459999561309814
1570646141.3777845,2019-10-09 12:35:41,7066.0,0.005656000226736069,0.020850999280810356,0.00967899989336729,0.05335899814963341,0.2842000126838684,-0.9199000000953674,-0.18459999561309814
1570646141.3777845,2019-10-09 12:35:41,7067.0,0.005685000214725733,0.020896999165415764,0.0096859997138381,0.053318001329898834,0.2808000147342682,-0.9247999787330627,-0.18459999561309814
1570646141.3777845,2019-10-09 12:35:41,7068.0,0.005710999947041273,0.020879000425338745,0.009645000100135803,0.05319700017571449,0.2831999957561493,-0.9204000234603882,-0.18359999358654022
1570646141.3777845,2019-10-09 12:35:41,7069.0,0.005690000019967556,0.02085999958217144,0.009669999592006207,0.05325600132346153,0.28119999170303345,-0.9193999767303467,-0.1860000044107437
1570646141.3777845,2019-10-09 12:35:41,7070.0,0.005692000035196543,0.02088800072669983,0.009668000042438507,0.05322600156068802,0.2827000021934509,-0.9169999957084656,-0.1826000064611435
1570646141.3777845,2019-10-09 12:35:41,7071.0,0.005656000226736069,0.020924000069499016,0.009782000444829464,0.05317800119519234,0.2827000021934509,-0.923799991607666,-0.1826000064611435
1570646141.9372861,2019-10-09 12:35:41,7072.0,0.00559200020506978,0.020896999165415764,0.009747999720275402,0.053151000291109085,0.28220000863075256,-0.9258000254631042,-0.18410000205039978
1570646141.9372861,2019-10-09 12:35:41,7073.0,0.005665000062435865,0.02089500054717064,0.009739000350236893,0.053158000111579895,0.2896000146865845,-0.92330002784729,-0.18410000205039978
1570646141.9372861,2019-10-09 12:35:41,7074.0,0.005704000126570463,0.020934000611305237,0.009769000113010406,0.05320800095796585,0.29490000009536743,-0.9140999913215637,-0.1851000040769577
1570646141.9372861,2019-10-09 12:35:41,7075.0,0.005685000214725733,0.02094000019133091,0.009840000420808792,0.05326800048351288,0.2992999851703644,-0.9061999917030334,-0.18649999797344208
1570646141.9372861,2019-10-09 12:35:41,7076.0,0.005688000004738569,0.020976999774575233,0.009813999757170677,0.05334300175309181,0.29350000619888306,-0.9023000001907349,-0.18119999766349792
1570646141.9372861,2019-10-09 12:35:41,7077.0,0.005673999898135662,0.020930999889969826,0.009859999641776085,0.053474001586437225,0.2808000147342682,-0.9092000126838684,-0.17870000004768372
1570646141.9372861,2019-10-09 12:35:41,7078.0,0.005683000199496746,0.020999999716877937,0.009805000387132168,0.05345499888062477,0.27730000019073486,-0.9125999808311462,-0.18019999563694
1570646141.9372861,2019-10-09 12:35:41,7079.0,0.005704000126570463,0.0209950003772974,0.009812000207602978,0.05360399931669235,0.2759000062942505,-0.9185000061988831,-0.18019999563694
1570646141.9372861,2019-10-09 12:35:41,7080.0,0.005685000214725733,0.020972000434994698,0.009864999912679195,0.053679998964071274,0.28119999170303345,-0.9307000041007996,-0.18160000443458557
1570646141.9372861,2019-10-09 12:35:41,7081.0,0.00570600014179945,0.020976999774575233,0.0097850002348423,0.05371600016951561,0.2734000086784363,-0.9330999851226807,-0.18160000443458557
1570646141.9372861,2019-10-09 12:35:41,7082.0,0.005714999977499247,0.021004000678658485,0.009864999912679195,0.05380300059914589,0.26899999380111694,-0.9351000189781189,-0.18070000410079956
1570646141.9372861,2019-10-09 12:35:41,7083.0,0.00570600014179945,0.02105499990284443,0.009906000457704067,0.053860001266002655,0.2754000127315521,-0.9307000041007996,-0.18310000002384186
1570646141.9372861,2019-10-09 12:35:41,7084.0,0.005673999898135662,0.021098000928759575,0.009936000220477581,0.05386500060558319,0.27489998936653137,-0.9253000020980835,-0.18410000205039978
1570646141.9372861,2019-10-09 12:35:41,7085.0,0.005656000226736069,0.021112000569701195,0.009921999648213387,0.053902000188827515,0.274399995803833,-0.92330002784729,-0.18310000002384186
1570646141.9372861,2019-10-09 12:35:41,7086.0,0.00570600014179945,0.021025000140070915,0.009914999827742577,0.053739000111818314,0.26660001277923584,-0.923799991607666,-0.18310000002384186
1570646141.9372861,2019-10-09 12:35:41,7087.0,0.005657999776303768,0.02100200019776821,0.009851000271737576,0.053387001156806946,0.26809999346733093,-0.9243000149726868,-0.18410000205039978
1570646141.9372861,2019-10-09 12:35:41,7088.0,0.005640000104904175,0.020834999158978462,0.009802999906241894,0.05314899981021881,0.2705000042915344,-0.9291999936103821,-0.1851000040769577
1570646141.9372861,2019-10-09 12:35:41,7089.0,0.00558699993416667,0.020739000290632248,0.00986700039356947,0.052907999604940414,0.2728999853134155,-0.9272000193595886,-0.1851000040769577
1570646141.9372861,2019-10-09 12:35:41,7090.0,0.005659999791532755,0.02061299979686737,0.009855999611318111,0.05280299857258797,0.2797999978065491,-0.9169999957084656,-0.18410000205039978
1570646141.9372861,2019-10-09 12:35:41,7091.0,0.005588999949395657,0.020609000697731972,0.009802999906241894,0.052737001329660416,0.2777999937534332,-0.9032999873161316,-0.19140000641345978
1570646141.9372861,2019-10-09 12:35:41,7092.0,0.005570999812334776,0.020635999739170074,0.009846000000834465,0.0525440014898777,0.26899999380111694,-0.8726000189781189,-0.19820000231266022
1570646141.9372861,2019-10-09 12:35:41,7093.0,0.00559200020506978,0.020538000389933586,0.009825999848544598,0.05237000063061714,0.26170000433921814,-0.823199987411499,-0.2134000062942505
1570646141.9372861,2019-10-09 12:35:41,7094.0,0.005543999839574099,0.02046000026166439,0.00977999996393919,0.0521869994699955,0.2759000062942505,-0.8173999786376953,-0.22220000624656677
1570646141.9372861,2019-10-09 12:35:41,7095.0,0.005570999812334776,0.02039100043475628,0.009757000021636486,0.05197399854660034,0.2930000126361847,-0.8241999745368958,-0.2240999937057495
1570646141.9372861,2019-10-09 12:35:41,7096.0,0.005545999854803085,0.02037999965250492,0.00977300014346838,0.05188800022006035,0.288100004196167,-0.8842999935150146,-0.2304999977350235
1570646141.9372861,2019-10-09 12:35:41,7097.0,0.005607999861240387,0.020308999344706535,0.009724999777972698,0.05172700062394142,0.26809999346733093,-0.9169999957084656,-0.23579999804496765
1570646141.9372861,2019-10-09 12:35:41,7098.0,0.005665000062435865,0.020347999408841133,0.009743000380694866,0.051750000566244125,0.2587999999523163,-0.9639000296592712,-0.23680000007152557
1570646141.9372861,2019-10-09 12:35:41,7099.0,0.005665000062435865,0.020573999732732773,0.00963599979877472,0.05192200094461441,0.23579999804496765,-0.9355000257492065,-0.25290000438690186
1570646141.9372861,2019-10-09 12:35:41,7100.0,0.005656000226736069,0.02086300030350685,0.009713999927043915,0.05213699862360954,0.2046000063419342,-0.9589999914169312,-0.25200000405311584
1570646141.9372861,2019-10-09 12:35:41,7101.0,0.005656000226736069,0.020875999704003334,0.009665999561548233,0.05221699923276901,0.1655000001192093,-0.9545999765396118,-0.26420000195503235
1570646141.9382834,2019-10-09 12:35:41,7102.0,0.005652999971061945,0.02100900001823902,0.009603999555110931,0.052292998880147934,0.13920000195503235,-0.9794999957084656,-0.2831999957561493
1570646141.9382834,2019-10-09 12:35:41,7103.0,0.005597999785095453,0.02101599983870983,0.00963599979877472,0.05232200026512146,0.13230000436306,-0.9843999743461609,-0.29350000619888306
1570646142.5434365,2019-10-09 12:35:42,7104.0,0.005597999785095453,0.020930999889969826,0.009693000465631485,0.052347999066114426,0.12700000405311584,-0.9771000146865845,-0.2930000126361847
1570646142.6302044,2019-10-09 12:35:42,7105.0,0.005663000047206879,0.020820999518036842,0.009646999649703503,0.052372999489307404,0.14059999585151672,-0.9696999788284302,-0.29739999771118164
1570646142.6302044,2019-10-09 12:35:42,7106.0,0.005588999949395657,0.020791999995708466,0.009592000395059586,0.05228099972009659,0.15279999375343323,-0.9467999935150146,-0.302700012922287
1570646142.6312013,2019-10-09 12:35:42,7107.0,0.0056420001201331615,0.020865000784397125,0.009661000221967697,0.05224499851465225,0.15770000219345093,-0.9375,-0.2919999957084656
1570646142.6312013,2019-10-09 12:35:42,7108.0,0.005603000055998564,0.02078700065612793,0.009606000036001205,0.052218999713659286,0.15479999780654907,-0.9463000297546387,-0.2827000021934509
1570646142.6312013,2019-10-09 12:35:42,7109.0,0.005619000177830458,0.020702000707387924,0.00961500033736229,0.05229000002145767,0.16940000653266907,-0.9473000168800354,-0.2827000021934509
1570646142.6312013,2019-10-09 12:35:42,7110.0,0.005663000047206879,0.020748000591993332,0.009573999792337418,0.05238199979066849,0.1889999955892563,-0.9365000128746033,-0.2847000062465668
1570646142.6312013,2019-10-09 12:35:42,7111.0,0.005667000077664852,0.02078000083565712,0.009697999805212021,0.05251000076532364,0.1923999935388565,-0.92330002784729,-0.274399995803833
1570646142.6312013,2019-10-09 12:35:42,7112.0,0.005640000104904175,0.020791999995708466,0.009736999869346619,0.05261100083589554,0.2011999934911728,-0.9282000064849854,-0.2660999894142151
1570646142.6312013,2019-10-09 12:35:42,7113.0,0.005623999983072281,0.02071399986743927,0.009690999984741211,0.052692998200654984,0.20509999990463257,-0.9380000233650208,-0.2538999915122986
1570646142.6312013,2019-10-09 12:35:42,7114.0,0.005588999949395657,0.020833000540733337,0.009681999683380127,0.052820999175310135,0.2134000062942505,-0.9365000128746033,-0.25099998712539673
1570646142.6312013,2019-10-09 12:35:42,7115.0,0.005665000062435865,0.020803000777959824,0.009802999906241894,0.0530409999191761,0.21480000019073486,-0.9110999703407288,-0.2549000084400177
1570646142.6312013,2019-10-09 12:35:42,7116.0,0.005607999861240387,0.02080499939620495,0.009844000451266766,0.053217001259326935,0.23440000414848328,-0.9286999702453613,-0.24950000643730164
1570646142.6312013,2019-10-09 12:35:42,7117.0,0.005609999876469374,0.020771000534296036,0.00993799977004528,0.053467001765966415,0.23389999568462372,-0.9199000000953674,-0.24410000443458557
1570646142.6312013,2019-10-09 12:35:42,7118.0,0.005619000177830458,0.02080100029706955,0.00994499959051609,0.05357399955391884,0.21289999783039093,-0.9106000065803528,-0.23829999566078186
1570646142.6312013,2019-10-09 12:35:42,7119.0,0.005625999998301268,0.020827999338507652,0.009929000400006771,0.05366099998354912,0.20559999346733093,-0.8720999956130981,-0.2401999980211258
1570646142.6312013,2019-10-09 12:35:42,7120.0,0.005628000013530254,0.020833000540733337,0.009952000342309475,0.053658999502658844,0.22849999368190765,-0.8604000210762024,-0.24320000410079956
1570646142.6312013,2019-10-09 12:35:42,7121.0,0.0055959997698664665,0.02079799957573414,0.009963000193238258,0.053732000291347504,0.24369999766349792,-0.8740000128746033,-0.24169999361038208
1570646142.6312013,2019-10-09 12:35:42,7122.0,0.005568999797105789,0.02077299915254116,0.010009000077843666,0.05378999933600426,0.25200000405311584,-0.8945000171661377,-0.24459999799728394
1570646142.6312013,2019-10-09 12:35:42,7123.0,0.0056119998916983604,0.020736999809741974,0.010029999539256096,0.053745999932289124,0.259799987077713,-0.9053000211715698,-0.25049999356269836
1570646142.6312013,2019-10-09 12:35:42,7124.0,0.005630000028759241,0.02077299915254116,0.009963000193238258,0.05361799895763397,0.2587999999523163,-0.9179999828338623,-0.2563000023365021
1570646142.6312013,2019-10-09 12:35:42,7125.0,0.005588999949395657,0.0206339992582798,0.009943000040948391,0.05335500091314316,0.24410000443458557,-0.9272000193595886,-0.25679999589920044
1570646142.6312013,2019-10-09 12:35:42,7126.0,0.005570999812334776,0.02051199972629547,0.009903999976813793,0.053070999681949615,0.23340000212192535,-0.9262999892234802,-0.2563000023365021
1570646142.6312013,2019-10-09 12:35:42,7127.0,0.005582000128924847,0.02038699947297573,0.009844000451266766,0.052900999784469604,0.23240000009536743,-0.9146000146865845,-0.25589999556541443
1570646142.6312013,2019-10-09 12:35:42,7128.0,0.005557000171393156,0.020306000486016273,0.009859999641776085,0.05273900181055069,0.23240000009536743,-0.9086999893188477,-0.25440001487731934
1570646142.6312013,2019-10-09 12:35:42,7129.0,0.005541000049561262,0.020276999101042747,0.009840000420808792,0.05264100059866905,0.23389999568462372,-0.9071999788284302,-0.2549000084400177
1570646142.6312013,2019-10-09 12:35:42,7130.0,0.005423999857157469,0.020183000713586807,0.009871999733150005,0.052560001611709595,0.2304999977350235,-0.9146000146865845,-0.2549000084400177
1570646142.6322,2019-10-09 12:35:42,7131.0,0.0055069997906684875,0.020177999511361122,0.009819000028073788,0.052420999854803085,0.2206999957561493,-0.9169999957084656,-0.2549000084400177
1570646142.6322,2019-10-09 12:35:42,7132.0,0.005477000027894974,0.02012999914586544,0.009836999699473381,0.052253998816013336,0.22460000216960907,-0.9258000254631042,-0.2524000108242035
1570646142.6322,2019-10-09 12:35:42,7133.0,0.005470000207424164,0.020080000162124634,0.00979200005531311,0.0521869994699955,0.22949999570846558,-0.9272000193595886,-0.25200000405311584
1570646142.6322,2019-10-09 12:35:42,7134.0,0.005472999997437,0.020038999617099762,0.00979399960488081,0.05214399844408035,0.22849999368190765,-0.9175000190734863,-0.25589999556541443
1570646142.6322,2019-10-09 12:35:42,7135.0,0.0055160000920295715,0.0200360007584095,0.009819000028073788,0.052090998739004135,0.225600004196167,-0.9150000214576721,-0.25440001487731934
1570646143.1996822,2019-10-09 12:35:43,7136.0,0.005510999821126461,0.020015999674797058,0.009782000444829464,0.051996998488903046,0.21289999783039093,-0.9208999872207642,-0.2515000104904175
1570646143.1996822,2019-10-09 12:35:43,7137.0,0.005435999948531389,0.020022999495267868,0.009754999540746212,0.05196100100874901,0.211899995803833,-0.9282000064849854,-0.24899999797344208
1570646143.1996822,2019-10-09 12:35:43,7138.0,0.005530000198632479,0.020047999918460846,0.009770999662578106,0.05205899849534035,0.22849999368190765,-0.926800012588501,-0.24459999799728394
1570646143.1996822,2019-10-09 12:35:43,7139.0,0.005483999848365784,0.020114000886678696,0.009802999906241894,0.05204299837350845,0.2363000065088272,-0.9160000085830688,-0.24560000002384186
1570646143.1996822,2019-10-09 12:35:43,7140.0,0.005530000198632479,0.020098000764846802,0.009813999757170677,0.05206099897623062,0.23729999363422394,-0.9106000065803528,-0.25049999356269836
1570646143.1996822,2019-10-09 12:35:43,7141.0,0.005497999954968691,0.020106999203562737,0.009739000350236893,0.051979001611471176,0.23829999566078186,-0.9160000085830688,-0.24899999797344208
1570646143.1996822,2019-10-09 12:35:43,7142.0,0.0055160000920295715,0.020096000283956528,0.009763999842107296,0.05189400166273117,0.23000000417232513,-0.9218999743461609,-0.24899999797344208
1570646143.1996822,2019-10-09 12:35:43,7143.0,0.005499999970197678,0.020075000822544098,0.009763999842107296,0.0518530011177063,0.2290000021457672,-0.9247999787330627,-0.24660000205039978
1570646143.1996822,2019-10-09 12:35:43,7144.0,0.00548599986359477,0.020090999081730843,0.009770999662578106,0.05181200057268143,0.23489999771118164,-0.9229000210762024,-0.2451000064611435
1570646143.1996822,2019-10-09 12:35:43,7145.0,0.005504999775439501,0.020075000822544098,0.009731999598443508,0.05178900063037872,0.24410000443458557,-0.92330002784729,-0.24459999799728394
1570646143.1996822,2019-10-09 12:35:43,7146.0,0.0055069997906684875,0.020098000764846802,0.009716000407934189,0.05181699991226196,0.24899999797344208,-0.9146000146865845,-0.24459999799728394
1570646143.1996822,2019-10-09 12:35:43,7147.0,0.005514000076800585,0.020020000636577606,0.009689000435173512,0.05174800008535385,0.24799999594688416,-0.9101999998092651,-0.24169999361038208
1570646143.1996822,2019-10-09 12:35:43,7148.0,0.005514000076800585,0.020075000822544098,0.009746000170707703,0.0518140010535717,0.24560000002384186,-0.9086999893188477,-0.24120000004768372
1570646143.2006795,2019-10-09 12:35:43,7149.0,0.005508999805897474,0.02006400004029274,0.009689000435173512,0.05175499990582466,0.2476000040769577,-0.9115999937057495,-0.24220000207424164
1570646143.2006795,2019-10-09 12:35:43,7150.0,0.0055320002138614655,0.020080000162124634,0.009727000258862972,0.05172999948263168,0.25099998712539673,-0.9247999787330627,-0.23970000445842743
1570646143.2006795,2019-10-09 12:35:43,7151.0,0.0055160000920295715,0.020200999453663826,0.009713999927043915,0.0518140010535717,0.25,-0.9243000149726868,-0.23880000412464142
1570646143.2006795,2019-10-09 12:35:43,7152.0,0.005537000019103289,0.02015100046992302,0.009713999927043915,0.05175499990582466,0.25049999356269836,-0.9262999892234802,-0.2354000061750412
1570646143.2006795,2019-10-09 12:35:43,7153.0,0.005543999839574099,0.0202029999345541,0.009716000407934189,0.05175900086760521,0.24709999561309814,-0.9336000084877014,-0.2363000065088272
1570646143.2006795,2019-10-09 12:35:43,7154.0,0.005520999897271395,0.020186999812722206,0.009727000258862972,0.0517520010471344,0.24609999358654022,-0.9398999810218811,-0.23929999768733978
1570646143.2006795,2019-10-09 12:35:43,7155.0,0.005541000049561262,0.02023099921643734,0.009697999805212021,0.05181900039315224,0.24899999797344208,-0.9330999851226807,-0.24070000648498535
1570646143.2006795,2019-10-09 12:35:43,7156.0,0.005584999918937683,0.020287999883294106,0.009657000191509724,0.05178200080990791,0.24560000002384186,-0.9276999831199646,-0.23489999771118164
1570646143.2006795,2019-10-09 12:35:43,7157.0,0.005524999927729368,0.020301999524235725,0.009693000465631485,0.05173899978399277,0.23829999566078186,-0.9253000020980835,-0.23729999363422394
1570646143.2006795,2019-10-09 12:35:43,7158.0,0.005582000128924847,0.020375000312924385,0.00962700042873621,0.0516589991748333,0.2515000104904175,-0.9336000084877014,-0.2354000061750412
1570646143.2006795,2019-10-09 12:35:43,7159.0,0.005576000083237886,0.020408999174833298,0.009566999971866608,0.051695000380277634,0.25589999556541443,-0.9375,-0.23440000414848328
1570646143.2006795,2019-10-09 12:35:43,7160.0,0.005601000040769577,0.02041899971663952,0.009588000364601612,0.05157199874520302,0.2549000084400177,-0.9286999702453613,-0.24120000004768372
1570646143.2006795,2019-10-09 12:35:43,7161.0,0.005584999918937683,0.020469000563025475,0.009461999870836735,0.051447998732328415,0.2797999978065491,-0.926800012588501,-0.25049999356269836
1570646143.2006795,2019-10-09 12:35:43,7162.0,0.005623999983072281,0.02054700069129467,0.009363999590277672,0.051468998193740845,0.30320000648498535,-0.9398999810218811,-0.2515000104904175
1570646143.2006795,2019-10-09 12:35:43,7163.0,0.005671999882906675,0.020586000755429268,0.009198999963700771,0.051302000880241394,0.2808000147342682,-0.9589999914169312,-0.24899999797344208
1570646143.2006795,2019-10-09 12:35:43,7164.0,0.005752000026404858,0.020654000341892242,0.009025000035762787,0.05096999928355217,0.2524000108242035,-0.9330999851226807,-0.25
1570646143.2006795,2019-10-09 12:35:43,7165.0,0.00584599981084466,0.020741000771522522,0.008829999715089798,0.050551000982522964,0.30219998955726624,-0.8895999789237976,-0.24609999358654022
1570646143.2006795,2019-10-09 12:35:43,7166.0,0.005830000154674053,0.02086699940264225,0.008523999713361263,0.0498570017516613,0.3662000000476837,-0.8705999851226807,-0.23489999771118164
1570646143.2006795,2019-10-09 12:35:43,7167.0,0.006012999918311834,0.02093599922955036,0.008314999751746655,0.0490260012447834,0.34619998931884766,-0.8916000127792358,-0.22220000624656677
1570646143.8545132,2019-10-09 12:35:43,7168.0,0.006080999970436096,0.021034000441432,0.008120999671518803,0.04837600141763687,0.3125,-0.92330002784729,-0.19580000638961792
1570646143.9560032,2019-10-09 12:35:43,7169.0,0.006171000190079212,0.02111699990928173,0.00798800028860569,0.04802199825644493,0.3125,-0.9018999934196472,-0.17919999361038208
1570646143.9570186,2019-10-09 12:35:43,7170.0,0.006227999925613403,0.02122199907898903,0.007867000065743923,0.04792099818587303,0.3345000147819519,-0.8593999743461609,-0.17090000212192535
1570646143.9570186,2019-10-09 12:35:43,7171.0,0.006231999956071377,0.02120799943804741,0.007876000367105007,0.04778600111603737,0.3490999937057495,-0.8330000042915344,-0.163100004196167
1570646143.9570186,2019-10-09 12:35:43,7172.0,0.006298999767750502,0.021152999252080917,0.007809000089764595,0.047669000923633575,0.35350000858306885,-0.8109999895095825,-0.14550000429153442
1570646143.9570186,2019-10-09 12:35:43,7173.0,0.0064199999906122684,0.021152999252080917,0.007677000015974045,0.047091998159885406,0.37700000405311584,-0.7900000214576721,-0.11909999698400497
1570646143.9570186,2019-10-09 12:35:43,7174.0,0.006502999924123287,0.021098000928759575,0.00762900011613965,0.046567998826503754,0.38920000195503235,-0.9146000146865845,-0.13770000636577606
1570646143.9570186,2019-10-09 12:35:43,7175.0,0.006372000090777874,0.021073000505566597,0.007468000054359436,0.04608999937772751,0.40380001068115234,-0.8291000127792358,-0.1688999980688095
1570646143.9570186,2019-10-09 12:35:43,7176.0,0.006357999984174967,0.020966000854969025,0.007530000060796738,0.045906998217105865,0.44339999556541443,-0.8544999957084656,-0.15919999778270721
1570646143.9570186,2019-10-09 12:35:43,7177.0,0.006333000026643276,0.020937999710440636,0.007495999801903963,0.0457100011408329,0.4341000020503998,-0.8939999938011169,-0.1436000019311905
1570646143.9570186,2019-10-09 12:35:43,7178.0,0.006328999996185303,0.02086699940264225,0.007528000045567751,0.045531000941991806,0.3822999894618988,-0.8794000148773193,-0.13619999587535858
1570646143.9570186,2019-10-09 12:35:43,7179.0,0.006316999904811382,0.020843999460339546,0.0074269999749958515,0.04534099996089935,0.41110000014305115,-0.8452000021934509,-0.11670000106096268
1570646143.9570186,2019-10-09 12:35:43,7180.0,0.006306000053882599,0.020827999338507652,0.007468000054359436,0.04533499851822853,0.42719998955726624,-0.8521000146865845,-0.10840000212192535
1570646143.9570186,2019-10-09 12:35:43,7181.0,0.006333000026643276,0.02069300040602684,0.007422999944537878,0.04516100138425827,0.4560999870300293,-0.8529999852180481,-0.10350000113248825
1570646143.9570186,2019-10-09 12:35:43,7182.0,0.006291999947279692,0.020647000521421432,0.007395000196993351,0.04510299861431122,0.4569999873638153,-0.8413000106811523,-0.10890000313520432
1570646143.9570186,2019-10-09 12:35:43,7183.0,0.006291999947279692,0.020615000277757645,0.007420000154525042,0.045076001435518265,0.4535999894142151,-0.82669997215271,-0.1151999980211258
1570646143.9570186,2019-10-09 12:35:43,7184.0,0.0062939999625086784,0.020603999495506287,0.007387999910861254,0.04504600167274475,0.4634000062942505,-0.8101000189781189,-0.12300000339746475
1570646143.9570186,2019-10-09 12:35:43,7185.0,0.006275999825447798,0.020594999194145203,0.007402000017464161,0.045010000467300415,0.46779999136924744,-0.8130000233650208,-0.1348000019788742
1570646143.9570186,2019-10-09 12:35:43,7186.0,0.006281000096350908,0.020508000627160072,0.007400000002235174,0.0449570007622242,0.4912000000476837,-0.8246999979019165,-0.13819999992847443
1570646143.9570186,2019-10-09 12:35:43,7187.0,0.006269000004976988,0.020548999309539795,0.007379000075161457,0.04501200094819069,0.49559998512268066,-0.8198000192642212,-0.15189999341964722
1570646143.9570186,2019-10-09 12:35:43,7188.0,0.0063149998895823956,0.020602000877261162,0.007333000190556049,0.04498700052499771,0.49219998717308044,-0.8490999937057495,-0.15620000660419464
1570646143.9570186,2019-10-09 12:35:43,7189.0,0.006250999867916107,0.02046000026166439,0.007335999980568886,0.04495500028133392,0.4740999937057495,-0.8690999746322632,-0.16410000622272491
1570646143.9579997,2019-10-09 12:35:43,7190.0,0.006231999956071377,0.020450999960303307,0.007333000190556049,0.044879000633955,0.4912000000476837,-0.8457000255584717,-0.17870000004768372
1570646143.9579997,2019-10-09 12:35:43,7191.0,0.006211999803781509,0.0205060001462698,0.00737700005993247,0.044879000633955,0.5073000192642212,-0.8003000020980835,-0.18700000643730164
1570646143.9579997,2019-10-09 12:35:43,7192.0,0.006190999876707792,0.02045699954032898,0.007315000053495169,0.04484499990940094,0.5029000043869019,-0.79830002784729,-0.1996999979019165
1570646143.9579997,2019-10-09 12:35:43,7193.0,0.006225999910384417,0.020430000498890877,0.00737199978902936,0.044874999672174454,0.47269999980926514,-0.8393999934196472,-0.21969999372959137
1570646143.9579997,2019-10-09 12:35:43,7194.0,0.006194000132381916,0.02042499929666519,0.0073449998162686825,0.044920001178979874,0.4413999915122986,-0.8593999743461609,-0.22609999775886536
1570646143.9579997,2019-10-09 12:35:43,7195.0,0.0062420000322163105,0.02033800072968006,0.007379000075161457,0.0450190007686615,0.40230000019073486,-0.8715999722480774,-0.22460000216960907
1570646143.9579997,2019-10-09 12:35:43,7196.0,0.0062049999833106995,0.020400000736117363,0.0074269999749958515,0.04510999843478203,0.35010001063346863,-0.8871999979019165,-0.23929999768733978
1570646143.9579997,2019-10-09 12:35:43,7197.0,0.0062420000322163105,0.020400000736117363,0.007455000188201666,0.04520599916577339,0.32670000195503235,-0.8651999831199646,-0.24560000002384186
1570646143.9579997,2019-10-09 12:35:43,7198.0,0.0062049999833106995,0.020434999838471413,0.007430000230669975,0.04529999941587448,0.32519999146461487,-0.8682000041007996,-0.25440001487731934
1570646143.9579997,2019-10-09 12:35:43,7199.0,0.006231999956071377,0.020363999530673027,0.0074339997954666615,0.04529799893498421,0.3237000107765198,-0.8794000148773193,-0.2563000023365021
1570646144.50994,2019-10-09 12:35:44,7200.0,0.0062350002117455006,0.02038699947297573,0.007488999981433153,0.04544200003147125,0.32670000195503235,-0.8881999850273132,-0.2583000063896179
1570646144.50994,2019-10-09 12:35:44,7201.0,0.006258000154048204,0.02044600062072277,0.007422999944537878,0.045584000647068024,0.34380000829696655,-0.8720999956130981,-0.2777999937534332
1570646144.50994,2019-10-09 12:35:44,7202.0,0.006202999968081713,0.02044600062072277,0.007412999868392944,0.04562300071120262,0.3944999873638153,-0.8877000212669373,-0.28859999775886536
1570646144.50994,2019-10-09 12:35:44,7203.0,0.006171000190079212,0.020428000018000603,0.007493999786674976,0.04561600089073181,0.3837999999523163,-0.8910999894142151,-0.3037000000476837
1570646144.50994,2019-10-09 12:35:44,7204.0,0.006206999998539686,0.020455000922083855,0.007466000039130449,0.04556100070476532,0.37209999561309814,-0.8871999979019165,-0.30079999566078186
1570646144.50994,2019-10-09 12:35:44,7205.0,0.006221000105142593,0.02044600062072277,0.007404000032693148,0.04546299949288368,0.3540000021457672,-0.8970000147819519,-0.2969000041484833
1570646144.50994,2019-10-09 12:35:44,7206.0,0.006213999819010496,0.020430000498890877,0.007488999981433153,0.04528399929404259,0.3594000041484833,-0.8690999746322632,-0.288100004196167
1570646144.50994,2019-10-09 12:35:44,7207.0,0.006175000220537186,0.02048500068485737,0.007445999886840582,0.04534599930047989,0.384799987077713,-0.8407999873161316,-0.28519999980926514
1570646144.50994,2019-10-09 12:35:44,7208.0,0.006213999819010496,0.020462000742554665,0.007420000154525042,0.04537399858236313,0.37059998512268066,-0.86080002784729,-0.288100004196167
1570646144.50994,2019-10-09 12:35:44,7209.0,0.006182000041007996,0.020469000563025475,0.007495999801903963,0.04563400149345398,0.3662000000476837,-0.8715999722480774,-0.2856000065803528
1570646144.50994,2019-10-09 12:35:44,7210.0,0.006165999919176102,0.020476000383496284,0.007548999972641468,0.04587699845433235,0.35249999165534973,-0.9077000021934509,-0.2964000105857849
1570646144.50994,2019-10-09 12:35:44,7211.0,0.006180000025779009,0.02045699954032898,0.007528000045567751,0.045878998935222626,0.3822999894618988,-0.9047999978065491,-0.301800012588501
1570646144.50994,2019-10-09 12:35:44,7212.0,0.006126999855041504,0.020434999838471413,0.00749799981713295,0.04595699906349182,0.40139999985694885,-0.8726000189781189,-0.31929999589920044
1570646144.50994,2019-10-09 12:35:44,7213.0,0.0061090001836419106,0.020455000922083855,0.007447999902069569,0.045979999005794525,0.4058000147342682,-0.8734999895095825,-0.32760000228881836
1570646144.50994,2019-10-09 12:35:44,7214.0,0.006136000156402588,0.0205329991877079,0.007412999868392944,0.04579700157046318,0.39890000224113464,-0.9247999787330627,-0.33059999346733093
1570646144.50994,2019-10-09 12:35:44,7215.0,0.006157000083476305,0.020483000203967094,0.0073079997673630714,0.045545000582933426,0.37700000405311584,-0.9175000190734863,-0.3345000147819519
1570646144.50994,2019-10-09 12:35:44,7216.0,0.006178000010550022,0.020423000678420067,0.00722600007429719,0.045242998749017715,0.4115999937057495,-0.8955000042915344,-0.3257000148296356
1570646144.50994,2019-10-09 12:35:44,7217.0,0.006138999946415424,0.020356999710202217,0.007044999860227108,0.044748999178409576,0.426800012588501,-0.8657000064849854,-0.3296000063419342
1570646144.50994,2019-10-09 12:35:44,7218.0,0.006165999919176102,0.020281000062823296,0.006988000124692917,0.04415399953722954,0.364300012588501,-0.8809000253677368,-0.32179999351501465
1570646144.5109377,2019-10-09 12:35:44,7219.0,0.006136000156402588,0.020161999389529228,0.006947000045329332,0.04377799853682518,0.3456999957561493,-0.8798999786376953,-0.3012999892234802
1570646144.5109377,2019-10-09 12:35:44,7220.0,0.00609700009226799,0.02007799968123436,0.006940000224858522,0.043554000556468964,0.3246999979019165,-0.8539999723434448,-0.2782999873161316
1570646144.5109377,2019-10-09 12:35:44,7221.0,0.006163999903947115,0.020013000816106796,0.006934999953955412,0.043501000851392746,0.31690001487731934,-0.8633000254631042,-0.26899999380111694
1570646144.5109377,2019-10-09 12:35:44,7222.0,0.006142999976873398,0.019965000450611115,0.00684799998998642,0.043212998658418655,0.31200000643730164,-0.8417999744415283,-0.24709999561309814
1570646144.5109377,2019-10-09 12:35:44,7223.0,0.006155000068247318,0.019944999366998672,0.006868999917060137,0.04307600110769272,0.2930000126361847,-0.8481000065803528,-0.23440000414848328
1570646144.5109377,2019-10-09 12:35:44,7224.0,0.006111000198870897,0.019872000440955162,0.006806999910622835,0.042904000729322433,0.28610000014305115,-0.8579000234603882,-0.23489999771118164
1570646144.5109377,2019-10-09 12:35:44,7225.0,0.006111000198870897,0.01987599954009056,0.0067540002055466175,0.04294300079345703,0.29350000619888306,-0.8378999829292297,-0.23340000212192535
1570646144.5109377,2019-10-09 12:35:44,7226.0,0.0061039999127388,0.01982799917459488,0.006699000019580126,0.0429220013320446,0.29589998722076416,-0.8378999829292297,-0.23340000212192535
1570646144.5109377,2019-10-09 12:35:44,7227.0,0.0061039999127388,0.019780000671744347,0.0067449999041855335,0.04292900115251541,0.2842000126838684,-0.8695999979972839,-0.22509999573230743
1570646144.5109377,2019-10-09 12:35:44,7228.0,0.006070000119507313,0.019778000190854073,0.006705999840050936,0.0428990013897419,0.3052000105381012,-0.8988999724388123,-0.2240999937057495
1570646144.5109377,2019-10-09 12:35:44,7229.0,0.006136000156402588,0.019750000908970833,0.006666999775916338,0.042844001203775406,0.34619998931884766,-0.8804000020027161,-0.23340000212192535
1570646144.5109377,2019-10-09 12:35:44,7230.0,0.0060720001347362995,0.019758999347686768,0.006703999824821949,0.042938001453876495,0.39160001277923584,-0.8647000193595886,-0.23929999768733978
1570646144.5109377,2019-10-09 12:35:44,7231.0,0.006118000019341707,0.019758999347686768,0.006763000041246414,0.043060000985860825,0.38429999351501465,-0.8544999957084656,-0.2354000061750412
1570646145.1133378,2019-10-09 12:35:45,7232.0,0.006056000012904406,0.019757000729441643,0.00672700023278594,0.043104998767375946,0.3540000021457672,-0.8574000000953674,-0.22750000655651093
1570646145.201709,2019-10-09 12:35:45,7233.0,0.006126999855041504,0.019683999940752983,0.006775000132620335,0.04332999885082245,0.3402999937534332,-0.8726000189781189,-0.22360000014305115
1570646145.20271,2019-10-09 12:35:45,7234.0,0.006140999961644411,0.01977499946951866,0.0067889997735619545,0.043366000056266785,0.35600000619888306,-0.8705999851226807,-0.2280000001192093
1570646145.20271,2019-10-09 12:35:45,7235.0,0.006080999970436096,0.01972999982535839,0.006845999974757433,0.043613001704216,0.384799987077713,-0.8589000105857849,-0.23489999771118164
1570646145.20271,2019-10-09 12:35:45,7236.0,0.006074999924749136,0.019703999161720276,0.006829999852925539,0.04380299896001816,0.38179999589920044,-0.8705999851226807,-0.23440000414848328
1570646145.20271,2019-10-09 12:35:45,7237.0,0.0061090001836419106,0.019752999767661095,0.00684100016951561,0.04392699897289276,0.3589000105857849,-0.8848000168800354,-0.2378000020980835
1570646145.20271,2019-10-09 12:35:45,7238.0,0.006142999976873398,0.019742999225854874,0.006920999847352505,0.044116999953985214,0.3578999936580658,-0.8687000274658203,-0.2451000064611435
1570646145.20271,2019-10-09 12:35:45,7239.0,0.006136000156402588,0.019732000306248665,0.006918999832123518,0.04435500130057335,0.36959999799728394,-0.8618000149726868,-0.259799987077713
1570646145.20271,2019-10-09 12:35:45,7240.0,0.006144999992102385,0.019765999168157578,0.006903000175952911,0.04469799995422363,0.3677000105381012,-0.8730000257492065,-0.2734000086784363
1570646145.20271,2019-10-09 12:35:45,7241.0,0.006200000178068876,0.01981000043451786,0.00700599979609251,0.044909000396728516,0.37059998512268066,-0.8838000297546387,-0.2777999937534332
1570646145.20271,2019-10-09 12:35:45,7242.0,0.006196000147610903,0.01983500085771084,0.007023999933153391,0.04494300112128258,0.3871999979019165,-0.8848000168800354,-0.2782999873161316
1570646145.20271,2019-10-09 12:35:45,7243.0,0.006194000132381916,0.01983500085771084,0.007021999917924404,0.04503500089049339,0.37700000405311584,-0.8945000171661377,-0.2768999934196472
1570646145.20271,2019-10-09 12:35:45,7244.0,0.006209999788552523,0.019923999905586243,0.007046999875456095,0.04522499814629555,0.3529999852180481,-0.8871999979019165,-0.2759000062942505
1570646145.20271,2019-10-09 12:35:45,7245.0,0.006209999788552523,0.01989700086414814,0.007060999982059002,0.045430999249219894,0.3783999979496002,-0.8496000170707703,-0.2777999937534332
1570646145.20271,2019-10-09 12:35:45,7246.0,0.0061889998614788055,0.019936000928282738,0.007031000219285488,0.045478999614715576,0.39890000224113464,-0.8740000128746033,-0.274399995803833
1570646145.20271,2019-10-09 12:35:45,7247.0,0.0062049999833106995,0.01988999918103218,0.007036000024527311,0.04552200064063072,0.37940001487731934,-0.8906000256538391,-0.27149999141693115
1570646145.2037084,2019-10-09 12:35:45,7248.0,0.006200000178068876,0.019951999187469482,0.0069599999114871025,0.045531000941991806,0.3555000126361847,-0.8682000041007996,-0.2694999873638153
1570646145.2037084,2019-10-09 12:35:45,7249.0,0.006227999925613403,0.019985999912023544,0.006990000139921904,0.04538699984550476,0.3452000021934509,-0.8515999913215637,-0.274399995803833
1570646145.2037084,2019-10-09 12:35:45,7250.0,0.006196000147610903,0.019930999726057053,0.006905000191181898,0.045343998819589615,0.36570000648498535,-0.8481000065803528,-0.2694999873638153
1570646145.2037084,2019-10-09 12:35:45,7251.0,0.006285000126808882,0.019953999668359756,0.00687999976798892,0.04528399929404259,0.36329999566078186,-0.8734999895095825,-0.26030001044273376
1570646145.2037084,2019-10-09 12:35:45,7252.0,0.006221000105142593,0.020013000816106796,0.006895999889820814,0.045170001685619354,0.3467000126838684,-0.8848000168800354,-0.2533999979496002
1570646145.2037084,2019-10-09 12:35:45,7253.0,0.006275999825447798,0.020034000277519226,0.006845999974757433,0.04512200132012367,0.33500000834465027,-0.8676999807357788,-0.25589999556541443
