time,date,sample,hSpO2 (uA),hSpO2 (uA),hSpO2 (uA),hSpO2 (uA),cACC (g),cACC (g),cACC (g)
1570560670.3312345,2019-10-08 12:51:10,4344.0,0.005568999797105789,0.017110999673604965,0.006058999802917242,0.058451998978853226,0.4027999937534332,-0.8047000169754028,-0.4203999936580658
1570560670.3312345,2019-10-08 12:51:10,4345.0,0.005576000083237886,0.017162000760436058,0.0061090001836419106,0.05823900178074837,0.3978999853134155,-0.8130000233650208,-0.41600000858306885
1570560670.3312345,2019-10-08 12:51:10,4346.0,0.00558000011369586,0.01723499968647957,0.006056000012904406,0.058049000799655914,0.399399995803833,-0.8130000233650208,-0.4097000062465668
1570560670.3312345,2019-10-08 12:51:10,4347.0,0.005504999775439501,0.017204999923706055,0.006085999775677919,0.05792799964547157,0.4009000062942505,-0.8184000253677368,-0.4027999937534332
1570560670.3312345,2019-10-08 12:51:10,4348.0,0.005520999897271395,0.017301000654697418,0.006049000192433596,0.05793699994683266,0.3921000063419342,-0.8306000232696533,-0.39989998936653137
1570560670.3312345,2019-10-08 12:51:10,4349.0,0.005555000156164169,0.017271000891923904,0.006045000161975622,0.05782900005578995,0.384799987077713,-0.8353999853134155,-0.3921000063419342
1570560670.3312345,2019-10-08 12:51:10,4350.0,0.0056050000712275505,0.017299000173807144,0.006037999875843525,0.057645998895168304,0.37549999356269836,-0.8330000042915344,-0.39309999346733093
1570560670.3312345,2019-10-08 12:51:10,4351.0,0.005547999870032072,0.017340000718832016,0.00608400022611022,0.05758700147271156,0.38920000195503235,-0.8345000147819519,-0.38670000433921814
1570560670.3312345,2019-10-08 12:51:10,4352.0,0.0055320002138614655,0.017335999757051468,0.006035999860614538,0.05752500146627426,0.39160001277923584,-0.8393999934196472,-0.3783999979496002
1570560670.3312345,2019-10-08 12:51:10,4353.0,0.005601000040769577,0.01738799922168255,0.006045000161975622,0.05741000175476074,0.375,-0.8374000191688538,-0.37790000438690186
1570560670.3312345,2019-10-08 12:51:10,4354.0,0.005557000171393156,0.017416000366210938,0.006064999848604202,0.05726199969649315,0.37059998512268066,-0.8403000235557556,-0.36910000443458557
1570560670.3312345,2019-10-08 12:51:10,4355.0,0.005609999876469374,0.01745700091123581,0.006049000192433596,0.05720699951052666,0.3578999936580658,-0.8521000146865845,-0.35499998927116394
1570560670.3312345,2019-10-08 12:51:10,4356.0,0.005568999797105789,0.017477000132203102,0.006022000219672918,0.057103998959064484,0.3379000127315521,-0.8467000126838684,-0.34380000829696655
1570560670.3312345,2019-10-08 12:51:10,4357.0,0.005508999805897474,0.01745700091123581,0.006006000097841024,0.057002998888492584,0.326200008392334,-0.8481000065803528,-0.33500000834465027
1570560670.3312345,2019-10-08 12:51:10,4358.0,0.005576000083237886,0.017488999292254448,0.006051999982446432,0.057075999677181244,0.3257000148296356,-0.850600004196167,-0.3310999870300293
1570560670.3312345,2019-10-08 12:51:10,4359.0,0.005530000198632479,0.01752999983727932,0.006039999891072512,0.05699799954891205,0.3149000108242035,-0.864300012588501,-0.323199987411499
1570560670.3312345,2019-10-08 12:51:10,4360.0,0.005561999976634979,0.017566999420523643,0.006074999924749136,0.05680600181221962,0.29829999804496765,-0.8676999807357788,-0.3163999915122986
1570560670.3312345,2019-10-08 12:51:10,4361.0,0.005530000198632479,0.01753699965775013,0.006020000204443932,0.056696001440286636,0.29739999771118164,-0.8568999767303467,-0.3075999915599823
1570560670.3312345,2019-10-08 12:51:10,4362.0,0.005547999870032072,0.017488999292254448,0.006039999891072512,0.056515999138355255,0.29350000619888306,-0.8568999767303467,-0.30219998955726624
1570560670.3322337,2019-10-08 12:51:10,4363.0,0.005518000107258558,0.017324000597000122,0.006049000192433596,0.05622699856758118,0.2759000062942505,-0.8695999979972839,-0.29829999804496765
1570560670.3322337,2019-10-08 12:51:10,4364.0,0.005510999821126461,0.017191000282764435,0.005987999960780144,0.0558289997279644,0.260699987411499,-0.8794000148773193,-0.2915000021457672
1570560670.3322337,2019-10-08 12:51:10,4365.0,0.005537000019103289,0.01710899919271469,0.005985000170767307,0.05539200082421303,0.24950000643730164,-0.875,-0.2847000062465668
1570560670.3322337,2019-10-08 12:51:10,4366.0,0.005475000012665987,0.01710899919271469,0.0059899999760091305,0.05512600019574165,0.2378000020980835,-0.8779000043869019,-0.2797999978065491
1570560670.3322337,2019-10-08 12:51:10,4367.0,0.005470000207424164,0.017071999609470367,0.005994000006467104,0.054892998188734055,0.22660000622272491,-0.885699987411499,-0.27880001068115234
1570560670.3322337,2019-10-08 12:51:10,4368.0,0.005501999985426664,0.017059000208973885,0.005929999984800816,0.0547650009393692,0.22220000624656677,-0.8955000042915344,-0.2759000062942505
1570560670.3322337,2019-10-08 12:51:10,4369.0,0.0055069997906684875,0.017055999487638474,0.00597199983894825,0.05449699983000755,0.22269999980926514,-0.9053000211715698,-0.2709999978542328
1570560670.3322337,2019-10-08 12:51:10,4370.0,0.005477000027894974,0.01713000051677227,0.005913999862968922,0.054255999624729156,0.2070000022649765,-0.9077000021934509,-0.2685999870300293
1570560670.3322337,2019-10-08 12:51:10,4371.0,0.005462999921292067,0.01713399961590767,0.005917000118643045,0.05384200066328049,0.19779999554157257,-0.9053000211715698,-0.26510000228881836
1570560670.3322337,2019-10-08 12:51:10,4372.0,0.00548599986359477,0.017159000039100647,0.005934999790042639,0.05350299924612045,0.20170000195503235,-0.9023000001907349,-0.2612000107765198
1570560670.3322337,2019-10-08 12:51:10,4373.0,0.005495000164955854,0.01710899919271469,0.005884999874979258,0.05326500162482262,0.20069999992847443,-0.9086999893188477,-0.2587999999523163
1570560670.3322337,2019-10-08 12:51:10,4374.0,0.005514000076800585,0.01710199937224388,0.005917000118643045,0.05299999937415123,0.1923999935388565,-0.9121000170707703,-0.2572999894618988
1570560670.3322337,2019-10-08 12:51:10,4375.0,0.005475000012665987,0.017078999429941177,0.005925999954342842,0.05274999886751175,0.1923999935388565,-0.9301999807357788,-0.2587999999523163
1570560670.9875054,2019-10-08 12:51:10,4376.0,0.00546600017696619,0.017159000039100647,0.005890999920666218,0.05262500047683716,0.19529999792575836,-0.9179999828338623,-0.25780001282691956
1570560670.9875054,2019-10-08 12:51:10,4377.0,0.005462999921292067,0.01720299944281578,0.005927999969571829,0.052285999059677124,0.1996999979019165,-0.9150000214576721,-0.2583000063896179
1570560670.9875054,2019-10-08 12:51:10,4378.0,0.005555000156164169,0.017273999750614166,0.005841000005602837,0.0519540011882782,0.19580000638961792,-0.9218999743461609,-0.2583000063896179
1570560670.9875054,2019-10-08 12:51:10,4379.0,0.005520999897271395,0.017273999750614166,0.005929999984800816,0.051614999771118164,0.19290000200271606,-0.9301999807357788,-0.25679999589920044
1570560670.9875054,2019-10-08 12:51:10,4380.0,0.005501999985426664,0.017305999994277954,0.005888999905437231,0.051215000450611115,0.19629999995231628,-0.9359999895095825,-0.2632000148296356
1570560670.9875054,2019-10-08 12:51:10,4381.0,0.005570999812334776,0.017412999644875526,0.005853000096976757,0.05059000104665756,0.20409999787807465,-0.9282000064849854,-0.26030001044273376
1570560670.9875054,2019-10-08 12:51:10,4382.0,0.005555000156164169,0.017444999888539314,0.005836000200361013,0.05015699937939644,0.19480000436306,-0.9146000146865845,-0.2572999894618988
1570560670.9875054,2019-10-08 12:51:10,4383.0,0.0055959997698664665,0.01747100055217743,0.005865999963134527,0.04961499944329262,0.19580000638961792,-0.9185000061988831,-0.2549000084400177
1570560670.9875054,2019-10-08 12:51:10,4384.0,0.005617000162601471,0.017539000138640404,0.005886999890208244,0.04912300035357475,0.20069999992847443,-0.9359999895095825,-0.25589999556541443
1570560670.9875054,2019-10-08 12:51:10,4385.0,0.00559200020506978,0.017559999600052834,0.0058570001274347305,0.04867599904537201,0.19820000231266022,-0.9204000234603882,-0.25
1570560670.9875054,2019-10-08 12:51:10,4386.0,0.005594000220298767,0.01764499954879284,0.0058200000785291195,0.04818199947476387,0.1898999959230423,-0.9110999703407288,-0.24709999561309814
1570560670.9875054,2019-10-08 12:51:10,4387.0,0.005578000098466873,0.017650999128818512,0.005896000191569328,0.047828998416662216,0.19290000200271606,-0.9047999978065491,-0.24320000410079956
1570560670.9875054,2019-10-08 12:51:10,4388.0,0.005630000028759241,0.01776600070297718,0.005890999920666218,0.047614000737667084,0.19380000233650208,-0.9077000021934509,-0.24320000410079956
1570560670.9875054,2019-10-08 12:51:10,4389.0,0.0056420001201331615,0.01776999980211258,0.005878000054508448,0.04741299897432327,0.1826000064611435,-0.9218999743461609,-0.23729999363422394
1570560670.9875054,2019-10-08 12:51:10,4390.0,0.005621000193059444,0.017721999436616898,0.005884999874979258,0.04723000153899193,0.17679999768733978,-0.9175000190734863,-0.23489999771118164
1570560670.9875054,2019-10-08 12:51:10,4391.0,0.005597999785095453,0.01779099926352501,0.0059460001066327095,0.0470150001347065,0.18160000443458557,-0.9150000214576721,-0.23829999566078186
1570560670.9875054,2019-10-08 12:51:10,4392.0,0.005621000193059444,0.017836999148130417,0.0059460001066327095,0.04677699878811836,0.18459999561309814,-0.9320999979972839,-0.2401999980211258
1570560670.9875054,2019-10-08 12:51:10,4393.0,0.005683000199496746,0.017829999327659607,0.0058570001274347305,0.04649300128221512,0.17870000004768372,-0.9375,-0.24660000205039978
1570560670.9875054,2019-10-08 12:51:10,4394.0,0.005667000077664852,0.01790500059723854,0.005888999905437231,0.046222999691963196,0.1889999955892563,-0.9375,-0.24609999358654022
1570560670.9875054,2019-10-08 12:51:10,4395.0,0.005700999870896339,0.017923999577760696,0.005950999911874533,0.046059999614953995,0.19290000200271606,-0.9390000104904175,-0.24609999358654022
1570560670.9875054,2019-10-08 12:51:10,4396.0,0.005630000028759241,0.017981000244617462,0.005882000084966421,0.04597499966621399,0.19189999997615814,-0.9375,-0.25
1570560670.9875054,2019-10-08 12:51:10,4397.0,0.005681000184267759,0.017985999584197998,0.005909999832510948,0.04594799876213074,0.19040000438690186,-0.9442999958992004,-0.24660000205039978
1570560670.9884772,2019-10-08 12:51:10,4398.0,0.005710999947041273,0.01793700084090233,0.005932999774813652,0.045889001339673996,0.1898999959230423,-0.9380000233650208,-0.24709999561309814
1570560670.9884772,2019-10-08 12:51:10,4399.0,0.005685000214725733,0.01800600066781044,0.005927999969571829,0.04576500132679939,0.1851000040769577,-0.9272000193595886,-0.2451000064611435
1570560670.9884772,2019-10-08 12:51:10,4400.0,0.005692000035196543,0.018038000911474228,0.005944000091403723,0.04567600041627884,0.18799999356269836,-0.9208999872207642,-0.24320000410079956
1570560670.9884772,2019-10-08 12:51:10,4401.0,0.005692000035196543,0.018052000552415848,0.00599699979647994,0.045605000108480453,0.18459999561309814,-0.9276999831199646,-0.24269999563694
1570560670.9884772,2019-10-08 12:51:10,4402.0,0.005675999913364649,0.01802399940788746,0.005985000170767307,0.045625001192092896,0.18019999563694,-0.9315999746322632,-0.24169999361038208
1570560670.9884772,2019-10-08 12:51:10,4403.0,0.00571999978274107,0.018108999356627464,0.00596500001847744,0.045712001621723175,0.18019999563694,-0.9164999723434448,-0.24369999766349792
1570560670.9884772,2019-10-08 12:51:10,4404.0,0.0057219997979700565,0.018124999478459358,0.006000999826937914,0.045736998319625854,0.18410000205039978,-0.9185000061988831,-0.24120000004768372
1570560670.9884772,2019-10-08 12:51:10,4405.0,0.005688000004738569,0.01811400055885315,0.006008000113070011,0.045820001512765884,0.17679999768733978,-0.9291999936103821,-0.24120000004768372
1570560670.9884772,2019-10-08 12:51:10,4406.0,0.0057379999198019505,0.018105000257492065,0.006031000055372715,0.0458500012755394,0.17919999361038208,-0.9355000257492065,-0.24410000443458557
1570560670.9884772,2019-10-08 12:51:10,4407.0,0.005671999882906675,0.018149999901652336,0.006029000040143728,0.04589800164103508,0.18310000002384186,-0.9355000257492065,-0.2476000040769577
1570560671.6457198,2019-10-08 12:51:11,4408.0,0.005727000068873167,0.01819399930536747,0.006031000055372715,0.04597499966621399,0.19040000438690186,-0.9336000084877014,-0.25200000405311584
1570560671.6457198,2019-10-08 12:51:11,4409.0,0.005698999855667353,0.018188999965786934,0.006051999982446432,0.04600299894809723,0.19290000200271606,-0.9315999746322632,-0.2515000104904175
1570560671.6457198,2019-10-08 12:51:11,4410.0,0.005762999877333641,0.018214000388979912,0.006035999860614538,0.04602599889039993,0.19189999997615814,-0.9282000064849854,-0.25049999356269836
1570560671.6457198,2019-10-08 12:51:11,4411.0,0.005681000184267759,0.0182460006326437,0.006033000070601702,0.04609699919819832,0.1875,-0.9272000193595886,-0.24369999766349792
1570560671.6457198,2019-10-08 12:51:11,4412.0,0.005700999870896339,0.018163999542593956,0.006047000177204609,0.04611099883913994,0.17630000412464142,-0.9434000253677368,-0.25
1570560671.6457198,2019-10-08 12:51:11,4413.0,0.005690000019967556,0.01811099983751774,0.006058999802917242,0.04602399840950966,0.17679999768733978,-0.9423999786376953,-0.25
1570560671.6457198,2019-10-08 12:51:11,4414.0,0.005669000092893839,0.017974000424146652,0.006020000204443932,0.04590500146150589,0.1729000061750412,-0.9394999742507935,-0.25099998712539673
1570560671.6457198,2019-10-08 12:51:11,4415.0,0.005659999791532755,0.017903000116348267,0.006080999970436096,0.045813001692295074,0.17630000412464142,-0.9423999786376953,-0.25290000438690186
1570560671.6457198,2019-10-08 12:51:11,4416.0,0.005582000128924847,0.017873000353574753,0.006033000070601702,0.04575999826192856,0.17870000004768372,-0.9369999766349792,-0.2485000044107437
1570560671.6457198,2019-10-08 12:51:11,4417.0,0.005621000193059444,0.01777300052344799,0.006068000104278326,0.045736998319625854,0.17820000648498535,-0.9375,-0.2485000044107437
1570560671.6457198,2019-10-08 12:51:11,4418.0,0.005625999998301268,0.0178459994494915,0.006041999906301498,0.04572400078177452,0.17720000445842743,-0.9326000213623047,-0.2476000040769577
1570560671.6457198,2019-10-08 12:51:11,4419.0,0.005625999998301268,0.017829999327659607,0.005998999811708927,0.04565500095486641,0.17579999566078186,-0.9258000254631042,-0.24459999799728394
1570560671.6457198,2019-10-08 12:51:11,4420.0,0.005640000104904175,0.017792999744415283,0.006076999939978123,0.04565000161528587,0.17239999771118164,-0.9307000041007996,-0.23929999768733978
1570560671.6457198,2019-10-08 12:51:11,4421.0,0.005628000013530254,0.01785299926996231,0.006029000040143728,0.045639000833034515,0.17139999568462372,-0.9185000061988831,-0.23579999804496765
1570560671.6457198,2019-10-08 12:51:11,4422.0,0.005578000098466873,0.01779099926352501,0.0060720001347362995,0.04559300094842911,0.16850000619888306,-0.9121000170707703,-0.2328999936580658
1570560671.6457198,2019-10-08 12:51:11,4423.0,0.00559200020506978,0.01771100051701069,0.00597199983894825,0.045632001012563705,0.17239999771118164,-0.926800012588501,-0.23440000414848328
1570560671.6457198,2019-10-08 12:51:11,4424.0,0.005613999906927347,0.017669999971985817,0.006039999891072512,0.0455860011279583,0.1703999936580658,-0.9247999787330627,-0.23729999363422394
1570560671.6457198,2019-10-08 12:51:11,4425.0,0.005572999827563763,0.01765800081193447,0.0060629998333752155,0.045584000647068024,0.1703999936580658,-0.9359999895095825,-0.23929999768733978
1570560671.6457198,2019-10-08 12:51:11,4426.0,0.005555000156164169,0.017714999616146088,0.006016999948769808,0.04570300132036209,0.18019999563694,-0.9301999807357788,-0.24070000648498535
1570560671.6457198,2019-10-08 12:51:11,4427.0,0.0055599999614059925,0.017676999792456627,0.006004000082612038,0.045733001083135605,0.18160000443458557,-0.9229000210762024,-0.24169999361038208
1570560671.6457198,2019-10-08 12:51:11,4428.0,0.005609999876469374,0.0176829993724823,0.006033000070601702,0.04574200138449669,0.17870000004768372,-0.913100004196167,-0.23970000445842743
1570560671.6457198,2019-10-08 12:51:11,4429.0,0.005555000156164169,0.017705999314785004,0.006016999948769808,0.04567600041627884,0.17430000007152557,-0.9169999957084656,-0.24120000004768372
1570560671.6457198,2019-10-08 12:51:11,4430.0,0.005537000019103289,0.01768999919295311,0.006060999818146229,0.045733001083135605,0.1703999936580658,-0.9204000234603882,-0.24269999563694
1570560671.6457198,2019-10-08 12:51:11,4431.0,0.005539000034332275,0.017666999250650406,0.006037999875843525,0.04581499844789505,0.17430000007152557,-0.9121000170707703,-0.2485000044107437
1570560671.6457198,2019-10-08 12:51:11,4432.0,0.005568999797105789,0.017669999971985817,0.00599699979647994,0.045805998146533966,0.1753000020980835,-0.9384999871253967,-0.25
1570560671.6457198,2019-10-08 12:51:11,4433.0,0.005547999870032072,0.017676999792456627,0.006022000219672918,0.045844998210668564,0.16359999775886536,-0.9409000277519226,-0.25679999589920044
1570560671.6457198,2019-10-08 12:51:11,4434.0,0.00558000011369586,0.017656000331044197,0.006051999982446432,0.045798998326063156,0.17090000212192535,-0.9330999851226807,-0.263700008392334
1570560671.6457198,2019-10-08 12:51:11,4435.0,0.005561999976634979,0.017660999670624733,0.0060259997844696045,0.045827001333236694,0.1738000065088272,-0.9384999871253967,-0.26269999146461487
1570560671.6457198,2019-10-08 12:51:11,4436.0,0.005518000107258558,0.017712999135255814,0.006051999982446432,0.045885998755693436,0.17090000212192535,-0.9394999742507935,-0.2671000063419342
1570560671.6457198,2019-10-08 12:51:11,4437.0,0.005497999954968691,0.017642000690102577,0.006041999906301498,0.04586600139737129,0.17139999568462372,-0.9369999766349792,-0.26809999346733093
1570560671.6457198,2019-10-08 12:51:11,4438.0,0.005566000007092953,0.017656000331044197,0.006014999933540821,0.04593399912118912,0.17239999771118164,-0.9375,-0.2685999870300293
1570560671.646717,2019-10-08 12:51:11,4439.0,0.005541000049561262,0.01771100051701069,0.00597199983894825,0.045892998576164246,0.1738000065088272,-0.9297000169754028,-0.27000001072883606
1570560672.2481112,2019-10-08 12:51:12,4440.0,0.005545999854803085,0.01769299991428852,0.006033000070601702,0.04592299833893776,0.17190000414848328,-0.9336000084877014,-0.26809999346733093
1570560672.2481112,2019-10-08 12:51:12,4441.0,0.005495000164955854,0.017720000818371773,0.006023999769240618,0.04592299833893776,0.16750000417232513,-0.9413999915122986,-0.26660001277923584
1570560672.2481112,2019-10-08 12:51:12,4442.0,0.005504999775439501,0.017666999250650406,0.006060999818146229,0.04592999815940857,0.16500000655651093,-0.9307000041007996,-0.2655999958515167
1570560672.2481112,2019-10-08 12:51:12,4443.0,0.005576000083237886,0.0177180003374815,0.00597199983894825,0.04596399888396263,0.16699999570846558,-0.9214000105857849,-0.2655999958515167
1570560672.3807547,2019-10-08 12:51:12,4444.0,0.00558699993416667,0.017734000459313393,0.005985000170767307,0.045993998646736145,0.1679999977350235,-0.9204000234603882,-0.26460000872612
1570560672.3807547,2019-10-08 12:51:12,4445.0,0.005501999985426664,0.017743000760674477,0.006041999906301498,0.045986998826265335,0.16990000009536743,-0.9307000041007996,-0.2685999870300293
1570560672.3807547,2019-10-08 12:51:12,4446.0,0.0055599999614059925,0.01775199919939041,0.006035999860614538,0.046045999974012375,0.16599999368190765,-0.9330999851226807,-0.26809999346733093
1570560672.3807547,2019-10-08 12:51:12,4447.0,0.005452000070363283,0.01773099973797798,0.0060259997844696045,0.04603299871087074,0.1679999977350235,-0.9282000064849854,-0.2671000063419342
1570560672.3807547,2019-10-08 12:51:12,4448.0,0.005510999821126461,0.017792999744415283,0.006020000204443932,0.046066999435424805,0.16599999368190765,-0.9247999787330627,-0.2671000063419342
1570560672.3807547,2019-10-08 12:51:12,4449.0,0.005543999839574099,0.017808999866247177,0.006010000128298998,0.04603499919176102,0.1665000021457672,-0.923799991607666,-0.2671000063419342
1570560672.3807547,2019-10-08 12:51:12,4450.0,0.0055320002138614655,0.017812000587582588,0.006006000097841024,0.046066999435424805,0.16500000655651093,-0.9297000169754028,-0.2685999870300293
1570560672.3807547,2019-10-08 12:51:12,4451.0,0.005497999954968691,0.01785999909043312,0.006012999918311834,0.04602999985218048,0.16850000619888306,-0.9301999807357788,-0.2685999870300293
1570560672.3807547,2019-10-08 12:51:12,4452.0,0.005524999927729368,0.017916999757289886,0.006037999875843525,0.0460439994931221,0.16750000417232513,-0.9315999746322632,-0.2705000042915344
1570560672.3807547,2019-10-08 12:51:12,4453.0,0.0055320002138614655,0.017928000539541245,0.005969000048935413,0.04609899967908859,0.16750000417232513,-0.9359999895095825,-0.2709999978542328
1570560672.3817549,2019-10-08 12:51:12,4454.0,0.005555000156164169,0.017909999936819077,0.0059830001555383205,0.046066999435424805,0.16990000009536743,-0.9315999746322632,-0.2720000147819519
1570560672.3817549,2019-10-08 12:51:12,4455.0,0.005541000049561262,0.017921000719070435,0.006004000082612038,0.046059999614953995,0.17190000414848328,-0.9175000190734863,-0.2720000147819519
1570560672.3817549,2019-10-08 12:51:12,4456.0,0.005570999812334776,0.017974000424146652,0.006014999933540821,0.04594999924302101,0.1665000021457672,-0.9434000253677368,-0.2705000042915344
1570560672.3817549,2019-10-08 12:51:12,4457.0,0.0055069997906684875,0.01786700077354908,0.006022000219672918,0.04583600163459778,0.163100004196167,-0.9434000253677368,-0.2734000086784363
1570560672.3817549,2019-10-08 12:51:12,4458.0,0.005495000164955854,0.017746999859809875,0.005948999896645546,0.045625001192092896,0.16500000655651093,-0.9320999979972839,-0.27730000019073486
1570560672.3817549,2019-10-08 12:51:12,4459.0,0.005510999821126461,0.017789000645279884,0.005942000076174736,0.045343998819589615,0.16459999978542328,-0.9336000084877014,-0.27250000834465027
1570560672.3817549,2019-10-08 12:51:12,4460.0,0.005534000229090452,0.017822999507188797,0.005991999991238117,0.04517199844121933,0.16019999980926514,-0.9883000254631042,-0.2612000107765198
1570560672.3817549,2019-10-08 12:51:12,4461.0,0.005524999927729368,0.017971999943256378,0.00599699979647994,0.044874999672174454,0.17430000007152557,-0.9818999767303467,-0.2587999999523163
1570560672.3817549,2019-10-08 12:51:12,4462.0,0.005609999876469374,0.01835400052368641,0.006016999948769808,0.044404998421669006,0.1875,-0.9096999764442444,-0.26809999346733093
1570560672.3817549,2019-10-08 12:51:12,4463.0,0.005776999983936548,0.01889600045979023,0.006051999982446432,0.04413500055670738,0.18359999358654022,-0.8788999915122986,-0.27149999141693115
1570560672.3817549,2019-10-08 12:51:12,4464.0,0.005752000026404858,0.019308000802993774,0.0060789999552071095,0.04397999867796898,0.1875,-0.8833000063896179,-0.27000001072883606
1570560672.3817549,2019-10-08 12:51:12,4465.0,0.005750000011175871,0.019589999690651894,0.0060629998333752155,0.04388999938964844,0.18359999358654022,-0.8964999914169312,-0.2612000107765198
1570560672.3817549,2019-10-08 12:51:12,4466.0,0.005630000028759241,0.01963300071656704,0.006101999897509813,0.04386100172996521,0.18160000443458557,-0.9204000234603882,-0.2583000063896179
1570560672.3817549,2019-10-08 12:51:12,4467.0,0.005650999955832958,0.019443999975919724,0.006107000168412924,0.0439319983124733,0.1776999980211258,-0.926800012588501,-0.2515000104904175
1570560672.3817549,2019-10-08 12:51:12,4468.0,0.005646999925374985,0.019361000508069992,0.006070000119507313,0.04393399879336357,0.18359999358654022,-0.8910999894142151,-0.260699987411499
1570560672.3817549,2019-10-08 12:51:12,4469.0,0.005634999834001064,0.019215000793337822,0.006047000177204609,0.04396999999880791,0.17870000004768372,-0.8906000256538391,-0.259799987077713
1570560672.3817549,2019-10-08 12:51:12,4470.0,0.005563999991863966,0.018882999196648598,0.006140999961644411,0.044036999344825745,0.17329999804496765,-0.9355000257492065,-0.2524000108242035
1570560672.3817549,2019-10-08 12:51:12,4471.0,0.005530000198632479,0.0185759998857975,0.006070000119507313,0.04412199929356575,0.18019999563694,-0.9369999766349792,-0.2549000084400177
1570560672.8993695,2019-10-08 12:51:12,4472.0,0.005491000134497881,0.0183470007032156,0.006093000061810017,0.04418100044131279,0.1753000020980835,-0.9185000061988831,-0.25929999351501465
1570560672.8993695,2019-10-08 12:51:12,4473.0,0.005543999839574099,0.018123000860214233,0.006107000168412924,0.044238001108169556,0.17720000445842743,-0.8974999785423279,-0.26759999990463257
1570560672.8993695,2019-10-08 12:51:12,4474.0,0.005468000192195177,0.01803099922835827,0.006093000061810017,0.044404998421669006,0.17720000445842743,-0.9282000064849854,-0.26170000433921814
1570560672.8993695,2019-10-08 12:51:12,4475.0,0.005481999833136797,0.017873000353574753,0.0061610001139342785,0.0447239987552166,0.1826000064611435,-0.9506999850273132,-0.26899999380111694
1570560672.8993695,2019-10-08 12:51:12,4476.0,0.005435999948531389,0.017802000045776367,0.006134000141173601,0.045086998492479324,0.18019999563694,-0.913100004196167,-0.2705000042915344
1570560672.8993695,2019-10-08 12:51:12,4477.0,0.005392000079154968,0.017663000151515007,0.006093000061810017,0.04546099901199341,0.17970000207424164,-0.9101999998092651,-0.2709999978542328
1570560672.8993695,2019-10-08 12:51:12,4478.0,0.005452000070363283,0.017566999420523643,0.0060789999552071095,0.045834001153707504,0.17720000445842743,-0.9301999807357788,-0.27250000834465027
1570560672.8993695,2019-10-08 12:51:12,4479.0,0.005371999926865101,0.0175160001963377,0.006085999775677919,0.046303000301122665,0.17919999361038208,-0.9526000022888184,-0.27250000834465027
1570560672.8993695,2019-10-08 12:51:12,4480.0,0.005382999777793884,0.017488999292254448,0.00609700009226799,0.046608999371528625,0.18209999799728394,-0.9365000128746033,-0.2777999937534332
1570560672.8993695,2019-10-08 12:51:12,4481.0,0.005348999984562397,0.017488999292254448,0.0060629998333752155,0.04680899903178215,0.17919999361038208,-0.9243000149726868,-0.27639999985694885
1570560672.8993695,2019-10-08 12:51:12,4482.0,0.005355999805033207,0.01742500066757202,0.006056000012904406,0.04690200090408325,0.18119999766349792,-0.9359999895095825,-0.2754000127315521
1570560672.8993695,2019-10-08 12:51:12,4483.0,0.005381000228226185,0.017441000789403915,0.006064999848604202,0.046778999269008636,0.1826000064611435,-0.9463000297546387,-0.2685999870300293
1570560672.8993695,2019-10-08 12:51:12,4484.0,0.005371999926865101,0.017506999894976616,0.0059739998541772366,0.04629800096154213,0.17870000004768372,-1.038599967956543,-0.25200000405311584
1570560672.8993695,2019-10-08 12:51:12,4485.0,0.005526999942958355,0.01810000091791153,0.006049000192433596,0.044808000326156616,0.19920000433921814,-0.9779999852180481,-0.27250000834465027
1570560672.8993695,2019-10-08 12:51:12,4486.0,0.005617000162601471,0.018744999542832375,0.006023999769240618,0.04405299946665764,0.19429999589920044,-0.8314999938011169,-0.2754000127315521
1570560672.8993695,2019-10-08 12:51:12,4487.0,0.005634999834001064,0.019308000802993774,0.006064999848604202,0.04390899837017059,0.1973000019788742,-0.8672000169754028,-0.2768999934196472
1570560672.8993695,2019-10-08 12:51:12,4488.0,0.0056489999406039715,0.01960800029337406,0.005975999869406223,0.04382399842143059,0.20020000636577606,-0.864300012588501,-0.2793000042438507
1570560672.8993695,2019-10-08 12:51:12,4489.0,0.005621000193059444,0.019352000206708908,0.006004000082612038,0.043869998306035995,0.19480000436306,-0.875,-0.2728999853134155
1570560672.8993695,2019-10-08 12:51:12,4490.0,0.00558699993416667,0.0187819991260767,0.006047000177204609,0.04400699958205223,0.19380000233650208,-0.9082000255584717,-0.26269999146461487
1570560672.8993695,2019-10-08 12:51:12,4491.0,0.005495000164955854,0.018358999863266945,0.006008000113070011,0.044192999601364136,0.19429999589920044,-0.9351000189781189,-0.260699987411499
1570560672.8993695,2019-10-08 12:51:12,4492.0,0.005491000134497881,0.018137000501155853,0.006035999860614538,0.04435500130057335,0.19089999794960022,-0.9179999828338623,-0.2621999979019165
1570560672.9003668,2019-10-08 12:51:12,4493.0,0.005437999963760376,0.017960000783205032,0.006029000040143728,0.04447200149297714,0.18850000202655792,-0.9253000020980835,-0.2685999870300293
1570560672.9003668,2019-10-08 12:51:12,4494.0,0.005423999857157469,0.017893999814987183,0.0060259997844696045,0.04468899965286255,0.18549999594688416,-0.9179999828338623,-0.2720000147819519
1570560672.9003668,2019-10-08 12:51:12,4495.0,0.005413000006228685,0.017743000760674477,0.006095000077039003,0.04497800022363663,0.18359999358654022,-0.9375,-0.27000001072883606
1570560672.9003668,2019-10-08 12:51:12,4496.0,0.005419999826699495,0.017735999077558517,0.006080999970436096,0.04536199942231178,0.18700000643730164,-0.9390000104904175,-0.2709999978542328
1570560672.9003668,2019-10-08 12:51:12,4497.0,0.005404000170528889,0.017721999436616898,0.00608400022611022,0.04566400125622749,0.1851000040769577,-0.9297000169754028,-0.2709999978542328
1570560672.9003668,2019-10-08 12:51:12,4498.0,0.005369999911636114,0.017676999792456627,0.006058999802917242,0.045802000910043716,0.1898999959230423,-0.9179999828338623,-0.2759000062942505
1570560672.9003668,2019-10-08 12:51:12,4499.0,0.005415000021457672,0.017669999971985817,0.006049000192433596,0.04594799876213074,0.1889999955892563,-0.9345999956130981,-0.2728999853134155
1570560672.9003668,2019-10-08 12:51:12,4500.0,0.005415000021457672,0.01768999919295311,0.006068000104278326,0.046059999614953995,0.18310000002384186,-0.9164999723434448,-0.274399995803833
1570560672.9003668,2019-10-08 12:51:12,4501.0,0.005379000212997198,0.01771100051701069,0.006037999875843525,0.04617699980735779,0.17919999361038208,-0.9136000275611877,-0.2754000127315521
1570560672.9003668,2019-10-08 12:51:12,4502.0,0.005394999869167805,0.017705999314785004,0.006056000012904406,0.04627799987792969,0.17919999361038208,-0.9160000085830688,-0.2734000086784363
1570560672.9003668,2019-10-08 12:51:12,4503.0,0.005413000006228685,0.01767200045287609,0.0060720001347362995,0.046456001698970795,0.1738000065088272,-0.9218999743461609,-0.2720000147819519
1570560673.5486631,2019-10-08 12:51:13,4504.0,0.005375999957323074,0.017669999971985817,0.006033000070601702,0.04661399871110916,0.17430000007152557,-0.9253000020980835,-0.26759999990463257
1570560673.6264262,2019-10-08 12:51:13,4505.0,0.00534699996933341,0.017633000388741493,0.005994000006467104,0.046858999878168106,0.17870000004768372,-0.9351000189781189,-0.2709999978542328
1570560673.6264262,2019-10-08 12:51:13,4506.0,0.00532200001180172,0.017656000331044197,0.0060629998333752155,0.04700300097465515,0.18700000643730164,-0.9204000234603882,-0.27639999985694885
1570560673.6264262,2019-10-08 12:51:13,4507.0,0.005344000179320574,0.017688000574707985,0.006008000113070011,0.04693000018596649,0.1851000040769577,-0.9390000104904175,-0.2759000062942505
1570560673.6264262,2019-10-08 12:51:13,4508.0,0.005373999942094088,0.017743000760674477,0.00597199983894825,0.04671899974346161,0.18850000202655792,-0.9193999767303467,-0.27639999985694885
1570560673.6264262,2019-10-08 12:51:13,4509.0,0.005388000048696995,0.017767999321222305,0.005969000048935413,0.046362001448869705,0.19339999556541443,-0.9214000105857849,-0.274399995803833
1570560673.6264262,2019-10-08 12:51:13,4510.0,0.005431000143289566,0.01776600070297718,0.006020000204443932,0.04608500003814697,0.19089999794960022,-0.9556000232696533,-0.26899999380111694
1570560673.6264262,2019-10-08 12:51:13,4511.0,0.005375999957323074,0.017741000279784203,0.005987999960780144,0.04559599980711937,0.1860000044107437,-1.0204999446868896,-0.25929999351501465
1570560673.6264262,2019-10-08 12:51:13,4512.0,0.005423999857157469,0.017821000888943672,0.0059369998052716255,0.044755998998880386,0.20649999380111694,-0.9452999830245972,-0.28029999136924744
1570560673.6264262,2019-10-08 12:51:13,4513.0,0.005617000162601471,0.018403999507427216,0.00599699979647994,0.04402099922299385,0.18310000002384186,-0.8353999853134155,-0.27730000019073486
1570560673.6264262,2019-10-08 12:51:13,4514.0,0.00559200020506978,0.01877499930560589,0.005956000182777643,0.0437140017747879,0.19580000638961792,-0.8877000212669373,-0.27489998936653137
1570560673.6264262,2019-10-08 12:51:13,4515.0,0.005652999971061945,0.019060999155044556,0.0059899999760091305,0.04363600164651871,0.19040000438690186,-0.8730000257492065,-0.2734000086784363
1570560673.6264262,2019-10-08 12:51:13,4516.0,0.005570999812334776,0.018884999677538872,0.005981000140309334,0.043768998235464096,0.1889999955892563,-0.8823000192642212,-0.2671000063419342
1570560673.6264262,2019-10-08 12:51:13,4517.0,0.005495000164955854,0.018530000001192093,0.0059739998541772366,0.043873999267816544,0.19140000641345978,-0.9014000296592712,-0.26269999146461487
1570560673.6264262,2019-10-08 12:51:13,4518.0,0.0054339999333024025,0.018062999472022057,0.005921000149101019,0.04390000179409981,0.18649999797344208,-0.92330002784729,-0.26030001044273376
1570560673.6264262,2019-10-08 12:51:13,4519.0,0.005458999890834093,0.017774999141693115,0.005960000213235617,0.044091999530792236,0.18459999561309814,-0.9262999892234802,-0.2612000107765198
1570560673.6264262,2019-10-08 12:51:13,4520.0,0.005357999820262194,0.017525000497698784,0.006000999826937914,0.04420600086450577,0.18310000002384186,-0.9390000104904175,-0.2655999958515167
1570560673.6264262,2019-10-08 12:51:13,4521.0,0.005348999984562397,0.01742199994623661,0.0059369998052716255,0.044447001069784164,0.1860000044107437,-0.9160000085830688,-0.27000001072883606
1570560673.6264262,2019-10-08 12:51:13,4522.0,0.005295999813824892,0.017301000654697418,0.006014999933540821,0.04474399983882904,0.18410000205039978,-0.9082000255584717,-0.2734000086784363
1570560673.6264262,2019-10-08 12:51:13,4523.0,0.005276000127196312,0.01724199950695038,0.005967000033706427,0.045180998742580414,0.18649999797344208,-0.9351000189781189,-0.2709999978542328
1570560673.6264262,2019-10-08 12:51:13,4524.0,0.005247999913990498,0.017142999917268753,0.005969000048935413,0.04563700035214424,0.19290000200271606,-0.9448000192642212,-0.26809999346733093
1570560673.6264262,2019-10-08 12:51:13,4525.0,0.0052919997833669186,0.01714799925684929,0.005962000228464603,0.04593399912118912,0.1875,-0.9345999956130981,-0.27000001072883606
1570560673.6274266,2019-10-08 12:51:13,4526.0,0.0052640000358223915,0.017124999314546585,0.0059899999760091305,0.04607599973678589,0.1889999955892563,-0.9214000105857849,-0.27250000834465027
1570560673.6274266,2019-10-08 12:51:13,4527.0,0.005251000169664621,0.01714099943637848,0.005969000048935413,0.046073999255895615,0.19040000438690186,-0.9307000041007996,-0.27390000224113464
1570560673.6274266,2019-10-08 12:51:13,4528.0,0.005262000020593405,0.017170999199151993,0.005942000076174736,0.046073999255895615,0.19140000641345978,-0.9204000234603882,-0.27730000019073486
1570560673.6274266,2019-10-08 12:51:13,4529.0,0.005257000215351582,0.01717500016093254,0.0059460001066327095,0.04602599889039993,0.1860000044107437,-0.9291999936103821,-0.2728999853134155
1570560673.6274266,2019-10-08 12:51:13,4530.0,0.005243999883532524,0.017159000039100647,0.00595800019800663,0.0459429994225502,0.18549999594688416,-0.9312000274658203,-0.27250000834465027
1570560673.6274266,2019-10-08 12:51:13,4531.0,0.005247999913990498,0.017191000282764435,0.005921000149101019,0.04581499844789505,0.18799999356269836,-0.9229000210762024,-0.2734000086784363
1570560673.6274266,2019-10-08 12:51:13,4532.0,0.005229999776929617,0.017159000039100647,0.005911999847739935,0.04565700143575668,0.19140000641345978,-0.9355000257492065,-0.2685999870300293
1570560673.6274266,2019-10-08 12:51:13,4533.0,0.005216000135987997,0.017184000462293625,0.0058109997771680355,0.04527699947357178,0.19189999997615814,-0.9916999936103821,-0.25589999556541443
1570560673.6274266,2019-10-08 12:51:13,4534.0,0.005348999984562397,0.01752300001680851,0.005888999905437231,0.044436998665332794,0.19920000433921814,-1.0542000532150269,-0.24410000443458557
1570560673.6274266,2019-10-08 12:51:13,4535.0,0.005520999897271395,0.018435999751091003,0.005905000027269125,0.043696001172065735,0.21240000426769257,-0.8666999936103821,-0.2865999937057495
1570560674.1998928,2019-10-08 12:51:14,4536.0,0.005663000047206879,0.019432000815868378,0.005919000133872032,0.04342599958181381,0.18119999766349792,-0.7929999828338623,-0.2728999853134155
1570560674.1998928,2019-10-08 12:51:14,4537.0,0.005727000068873167,0.02031799964606762,0.005896000191569328,0.04333600029349327,0.20900000631809235,-0.8866999745368958,-0.2793000042438507
1570560674.1998928,2019-10-08 12:51:14,4538.0,0.005739999935030937,0.020990999415516853,0.005896000191569328,0.043467000126838684,0.19920000433921814,-0.8521000146865845,-0.27639999985694885
1570560674.1998928,2019-10-08 12:51:14,4539.0,0.005621000193059444,0.0202649999409914,0.005890999920666218,0.043547000735998154,0.19869999587535858,-0.8852999806404114,-0.26510000228881836
1570560674.1998928,2019-10-08 12:51:14,4540.0,0.005497999954968691,0.019260000437498093,0.005942000076174736,0.04377099871635437,0.19920000433921814,-0.8984000086784363,-0.2632000148296356
1570560674.1998928,2019-10-08 12:51:14,4541.0,0.0054410002194345,0.018518999218940735,0.00596500001847744,0.04419500008225441,0.19380000233650208,-0.9146000146865845,-0.2612000107765198
1570560674.1998928,2019-10-08 12:51:14,4542.0,0.005419999826699495,0.01802000030875206,0.005991999991238117,0.044606998562812805,0.20020000636577606,-0.9179999828338623,-0.2671000063419342
1570560674.1998928,2019-10-08 12:51:14,4543.0,0.005392000079154968,0.017705999314785004,0.005960000213235617,0.04523799940943718,0.19189999997615814,-0.9355000257492065,-0.260699987411499
1570560674.1998928,2019-10-08 12:51:14,4544.0,0.005309999920427799,0.017612000927329063,0.006012999918311834,0.04597099870443344,0.19580000638961792,-0.9535999894142151,-0.27149999141693115
1570560674.1998928,2019-10-08 12:51:14,4545.0,0.005338000133633614,0.017461000010371208,0.005981000140309334,0.04646800085902214,0.19679999351501465,-0.9214000105857849,-0.27149999141693115
1570560674.1998928,2019-10-08 12:51:14,4546.0,0.005255000200122595,0.017483999952673912,0.006051999982446432,0.04692799970507622,0.19339999556541443,-0.9390000104904175,-0.2754000127315521
1570560674.1998928,2019-10-08 12:51:14,4547.0,0.005251000169664621,0.017393000423908234,0.006010000128298998,0.04749999940395355,0.19089999794960022,-0.9272000193595886,-0.27489998936653137
1570560674.1998928,2019-10-08 12:51:14,4548.0,0.005245999898761511,0.017412999644875526,0.005985000170767307,0.04785899817943573,0.18799999356269836,-0.9434000253677368,-0.2754000127315521
1570560674.1998928,2019-10-08 12:51:14,4549.0,0.005262000020593405,0.01737700030207634,0.005962000228464603,0.04798499867320061,0.18700000643730164,-0.9320999979972839,-0.27390000224113464
1570560674.1998928,2019-10-08 12:51:14,4550.0,0.005282999947667122,0.01743200048804283,0.005985000170767307,0.047874998301267624,0.1860000044107437,-0.9297000169754028,-0.2777999937534332
1570560674.1998928,2019-10-08 12:51:14,4551.0,0.005295999813824892,0.017503000795841217,0.00595800019800663,0.04769900068640709,0.18649999797344208,-0.9320999979972839,-0.27639999985694885
1570560674.1998928,2019-10-08 12:51:14,4552.0,0.005282999947667122,0.01752300001680851,0.005909999832510948,0.047099001705646515,0.18649999797344208,-0.9789999723434448,-0.25290000438690186
1570560674.1998928,2019-10-08 12:51:14,4553.0,0.00535399978980422,0.017746999859809875,0.005909999832510948,0.04566400125622749,0.20409999787807465,-1.0595999956130981,-0.2533999979496002
1570560674.1998928,2019-10-08 12:51:14,4554.0,0.005539000034332275,0.018624000251293182,0.005894000176340342,0.04453599825501442,0.2070000022649765,-0.9434000253677368,-0.2754000127315521
1570560674.1998928,2019-10-08 12:51:14,4555.0,0.005665000062435865,0.019612999632954597,0.00597799988463521,0.04421500116586685,0.18799999356269836,-0.7401999831199646,-0.28220000863075256
1570560674.1998928,2019-10-08 12:51:14,4556.0,0.005679000169038773,0.020437000319361687,0.00595800019800663,0.044137999415397644,0.2094999998807907,-0.8628000020980835,-0.2865999937057495
1570560674.1998928,2019-10-08 12:51:14,4557.0,0.005570999812334776,0.020622000098228455,0.005913999862968922,0.04425700008869171,0.2011999934911728,-0.8403000235557556,-0.2847000062465668
1570560674.1998928,2019-10-08 12:51:14,4558.0,0.005497999954968691,0.01940000057220459,0.005934999790042639,0.04457499831914902,0.19629999995231628,-0.8550000190734863,-0.27390000224113464
1570560674.1998928,2019-10-08 12:51:14,4559.0,0.005462999921292067,0.0184480007737875,0.005934999790042639,0.04507400095462799,0.1898999959230423,-0.9140999913215637,-0.259799987077713
1570560674.1998928,2019-10-08 12:51:14,4560.0,0.005357999820262194,0.01799199916422367,0.006020000204443932,0.04593399912118912,0.19339999556541443,-0.9628999829292297,-0.25929999351501465
1570560674.1998928,2019-10-08 12:51:14,4561.0,0.0053010000847280025,0.01786700077354908,0.005998999811708927,0.046737998723983765,0.19339999556541443,-0.9570000171661377,-0.26420000195503235
1570560674.200889,2019-10-08 12:51:14,4562.0,0.005257000215351582,0.01776999980211258,0.006056000012904406,0.04723900184035301,0.19380000233650208,-0.9175000190734863,-0.2759000062942505
1570560674.200889,2019-10-08 12:51:14,4563.0,0.005243999883532524,0.01768600009381771,0.006033000070601702,0.04775400087237358,0.19480000436306,-0.9375,-0.27489998936653137
1570560674.200889,2019-10-08 12:51:14,4564.0,0.005245999898761511,0.017653999850153923,0.00597799988463521,0.048190999776124954,0.19040000438690186,-0.9394999742507935,-0.2754000127315521
1570560674.200889,2019-10-08 12:51:14,4565.0,0.005193000193685293,0.01759199984371662,0.006045000161975622,0.04858899861574173,0.18410000205039978,-0.9345999956130981,-0.28029999136924744
1570560674.200889,2019-10-08 12:51:14,4566.0,0.005200000014156103,0.017416000366210938,0.005956000182777643,0.04850900173187256,0.18359999358654022,-0.9307000041007996,-0.28119999170303345
1570560674.200889,2019-10-08 12:51:14,4567.0,0.005164000205695629,0.017301000654697418,0.0059899999760091305,0.04824399948120117,0.18549999594688416,-0.9121000170707703,-0.2847000062465668
1570560674.802282,2019-10-08 12:51:14,4568.0,0.005197999998927116,0.017273999750614166,0.005944000091403723,0.0480629988014698,0.18549999594688416,-0.9146000146865845,-0.2831999957561493
1570560674.9020145,2019-10-08 12:51:14,4569.0,0.005173000041395426,0.017204999923706055,0.005903000012040138,0.04795999825000763,0.18649999797344208,-0.9115999937057495,-0.28220000863075256
1570560674.9020145,2019-10-08 12:51:14,4570.0,0.005166000220924616,0.017131999135017395,0.0059369998052716255,0.04797099903225899,0.18799999356269836,-0.9110999703407288,-0.28119999170303345
1570560674.9020145,2019-10-08 12:51:14,4571.0,0.005148000083863735,0.01711999997496605,0.005969000048935413,0.04810899868607521,0.18850000202655792,-0.9110999703407288,-0.2808000147342682
1570560674.9020145,2019-10-08 12:51:14,4572.0,0.005154000129550695,0.017016999423503876,0.0059460001066327095,0.04842200130224228,0.18950000405311584,-0.9272000193595886,-0.2816999852657318
1570560674.9020145,2019-10-08 12:51:14,4573.0,0.005148000083863735,0.016993999481201172,0.005894000176340342,0.04853900149464607,0.1898999959230423,-0.9175000190734863,-0.2793000042438507
1570560674.9020145,2019-10-08 12:51:14,4574.0,0.005177000071853399,0.01696000061929226,0.005923000164330006,0.04845200106501579,0.1860000044107437,-0.9179999828338623,-0.27639999985694885
1570560674.9020145,2019-10-08 12:51:14,4575.0,0.0051449998281896114,0.016993999481201172,0.005886999890208244,0.04840200021862984,0.18649999797344208,-0.9384999871253967,-0.27639999985694885
1570560674.9020145,2019-10-08 12:51:14,4576.0,0.005106000229716301,0.017009999603033066,0.005816000048071146,0.04808799922466278,0.1898999959230423,-0.9599999785423279,-0.2694999873638153
1570560674.9020145,2019-10-08 12:51:14,4577.0,0.005166000220924616,0.017006000503897667,0.005824999883770943,0.04686399921774864,0.19580000638961792,-0.9648000001907349,-0.2808000147342682
1570560674.9020145,2019-10-08 12:51:14,4578.0,0.005197999998927116,0.017178000882267952,0.005799999926239252,0.04545599967241287,0.20360000431537628,-0.9550999999046326,-0.27149999141693115
1570560674.9020145,2019-10-08 12:51:14,4579.0,0.005253000184893608,0.017539000138640404,0.005766000133007765,0.04431600123643875,0.20749999582767487,-0.9276999831199646,-0.2808000147342682
1570560674.9020145,2019-10-08 12:51:14,4580.0,0.005365000106394291,0.018045000731945038,0.005791000090539455,0.04373700171709061,0.20559999346733093,-0.8252000212669373,-0.2842000126838684
1570560674.9020145,2019-10-08 12:51:14,4581.0,0.005408000200986862,0.018432000651955605,0.005762999877333641,0.0436679981648922,0.20649999380111694,-0.8422999978065491,-0.2896000146865845
1570560674.9020145,2019-10-08 12:51:14,4582.0,0.005305000115185976,0.018400000408291817,0.005760999862104654,0.04369400069117546,0.20360000431537628,-0.8765000104904175,-0.2797999978065491
1570560674.9020145,2019-10-08 12:51:14,4583.0,0.0053400001488626,0.01802399940788746,0.005791000090539455,0.04376700147986412,0.20069999992847443,-0.9146000146865845,-0.27250000834465027
1570560674.9020145,2019-10-08 12:51:14,4584.0,0.005311999935656786,0.01771100051701069,0.005745000205934048,0.04407300055027008,0.19480000436306,-0.9189000129699707,-0.2720000147819519
1570560674.9020145,2019-10-08 12:51:14,4585.0,0.0052919997833669186,0.017465999349951744,0.005861999932676554,0.044488001614809036,0.19290000200271606,-0.9154999852180481,-0.27149999141693115
1570560674.9020145,2019-10-08 12:51:14,4586.0,0.005179999861866236,0.017368000000715256,0.005865999963134527,0.04516499862074852,0.19339999556541443,-0.9229000210762024,-0.27730000019073486
1570560674.9030132,2019-10-08 12:51:14,4587.0,0.005235000047832727,0.017223000526428223,0.005859000142663717,0.04592499881982803,0.19380000233650208,-0.9140999913215637,-0.2782999873161316
1570560674.9030132,2019-10-08 12:51:14,4588.0,0.005152000114321709,0.017170999199151993,0.005841000005602837,0.0465800017118454,0.19040000438690186,-0.9218999743461609,-0.2816999852657318
1570560674.9030132,2019-10-08 12:51:14,4589.0,0.005177000071853399,0.017172999680042267,0.005809000227600336,0.047864001244306564,0.19040000438690186,-0.9154999852180481,-0.28119999170303345
1570560674.9030132,2019-10-08 12:51:14,4590.0,0.005152000114321709,0.017110999673604965,0.005849999841302633,0.049309998750686646,0.1875,-0.9535999894142151,-0.27880001068115234
1570560674.9030132,2019-10-08 12:51:14,4591.0,0.005067000165581703,0.01717500016093254,0.00584599981084466,0.04985300078988075,0.1898999959230423,-0.9359999895095825,-0.28369998931884766
1570560674.9030132,2019-10-08 12:51:14,4592.0,0.005106000229716301,0.017124999314546585,0.005830000154674053,0.04984400048851967,0.1923999935388565,-0.8960000276565552,-0.28519999980926514
1570560674.9030132,2019-10-08 12:51:14,4593.0,0.005164000205695629,0.01708799973130226,0.005816000048071146,0.050046999007463455,0.1889999955892563,-0.92330002784729,-0.28369998931884766
1570560674.9030132,2019-10-08 12:51:14,4594.0,0.005098999943584204,0.017146000638604164,0.005776999983936548,0.05014299973845482,0.19040000438690186,-0.9218999743461609,-0.28519999980926514
1570560674.9030132,2019-10-08 12:51:14,4595.0,0.005117999855428934,0.017100000753998756,0.00583200016990304,0.05028799921274185,0.19480000436306,-0.9146000146865845,-0.28760001063346863
1570560674.9030132,2019-10-08 12:51:14,4596.0,0.005071999970823526,0.017170999199151993,0.005799999926239252,0.05044599995017052,0.19480000436306,-0.9175000190734863,-0.288100004196167
1570560674.9030132,2019-10-08 12:51:14,4597.0,0.005125000141561031,0.01711999997496605,0.005795000120997429,0.05060800164937973,0.19480000436306,-0.9253000020980835,-0.2870999872684479
1570560674.9030132,2019-10-08 12:51:14,4598.0,0.0050860000774264336,0.017055999487638474,0.0057470002211630344,0.05071299895644188,0.19339999556541443,-0.9179999828338623,-0.288100004196167
1570560674.9030132,2019-10-08 12:51:14,4599.0,0.00506300013512373,0.01713399961590767,0.005781999789178371,0.05072899907827377,0.1923999935388565,-0.9164999723434448,-0.2847000062465668
1570560675.45753,2019-10-08 12:51:15,4600.0,0.005053999833762646,0.01714099943637848,0.005781999789178371,0.050686001777648926,0.19189999997615814,-0.9150000214576721,-0.28610000014305115
1570560675.45753,2019-10-08 12:51:15,4601.0,0.005047000013291836,0.01710899919271469,0.005760999862104654,0.05074299871921539,0.19140000641345978,-0.9067000150680542,-0.28859999775886536
1570560675.45753,2019-10-08 12:51:15,4602.0,0.005003000143915415,0.017107000574469566,0.005750000011175871,0.05093799903988838,0.19040000438690186,-0.9121000170707703,-0.28760001063346863
1570560675.45753,2019-10-08 12:51:15,4603.0,0.005071999970823526,0.017107000574469566,0.0057680001482367516,0.051093000918626785,0.18700000643730164,-0.9179999828338623,-0.28610000014305115
1570560675.45753,2019-10-08 12:51:15,4604.0,0.004985000006854534,0.01712300069630146,0.005690000019967556,0.05112500116229057,0.18700000643730164,-0.9150000214576721,-0.2870999872684479
1570560675.45753,2019-10-08 12:51:15,4605.0,0.005030999891459942,0.017077000811696053,0.005727000068873167,0.05122099816799164,0.1898999959230423,-0.9067000150680542,-0.28519999980926514
1570560675.45753,2019-10-08 12:51:15,4606.0,0.005018999800086021,0.01705400086939335,0.005700999870896339,0.05150999873876572,0.1898999959230423,-0.9032999873161316,-0.28859999775886536
1570560675.45753,2019-10-08 12:51:15,4607.0,0.005073999986052513,0.017078999429941177,0.005700999870896339,0.052007000893354416,0.19429999589920044,-0.9106000065803528,-0.28859999775886536
1570560675.45753,2019-10-08 12:51:15,4608.0,0.005044999998062849,0.01706100068986416,0.005698999855667353,0.05236100032925606,0.19380000233650208,-0.9229000210762024,-0.29100000858306885
1570560675.45753,2019-10-08 12:51:15,4609.0,0.005038000177592039,0.01705400086939335,0.005673999898135662,0.052602000534534454,0.19679999351501465,-0.9229000210762024,-0.28999999165534973
1570560675.45753,2019-10-08 12:51:15,4610.0,0.005005999933928251,0.01704699918627739,0.00571999978274107,0.05263800173997879,0.19580000638961792,-0.9193999767303467,-0.2919999957084656
1570560675.45753,2019-10-08 12:51:15,4611.0,0.004958000034093857,0.016964999958872795,0.005750000011175871,0.05262700095772743,0.19189999997615814,-0.9262999892234802,-0.29589998722076416
1570560675.45753,2019-10-08 12:51:15,4612.0,0.004925999790430069,0.016818000003695488,0.005694999825209379,0.05244100093841553,0.1898999959230423,-0.9243000149726868,-0.29789999127388
1570560675.45753,2019-10-08 12:51:15,4613.0,0.004989999812096357,0.01670200005173683,0.0056329998187720776,0.0523109994828701,0.1875,-0.9262999892234802,-0.2939000129699707
1570560675.45753,2019-10-08 12:51:15,4614.0,0.0049299998208880424,0.016665000468492508,0.005584999918937683,0.05198799818754196,0.18850000202655792,-0.9330999851226807,-0.28999999165534973
1570560675.45753,2019-10-08 12:51:15,4615.0,0.004982999991625547,0.01663300022482872,0.005607999861240387,0.051215000450611115,0.19040000438690186,-0.9413999915122986,-0.2890999913215637
1570560675.45753,2019-10-08 12:51:15,4616.0,0.00493700010702014,0.016675999388098717,0.005549999885261059,0.04991000145673752,0.1923999935388565,-0.9154999852180481,-0.28029999136924744
1570560675.45753,2019-10-08 12:51:15,4617.0,0.005005999933928251,0.01670200005173683,0.0055320002138614655,0.04759399965405464,0.19290000200271606,-1.0077999830245972,-0.2655999958515167
1570560675.45753,2019-10-08 12:51:15,4618.0,0.005119999870657921,0.0169489998370409,0.005456999875605106,0.04458199813961983,0.19580000638961792,-0.9603999853134155,-0.2782999873161316
1570560675.45753,2019-10-08 12:51:15,4619.0,0.005152000114321709,0.01737000048160553,0.005404000170528889,0.043111998587846756,0.19339999556541443,-0.8535000085830688,-0.2827000021934509
1570560675.45753,2019-10-08 12:51:15,4620.0,0.005245999898761511,0.01783199980854988,0.005437999963760376,0.042649999260902405,0.19339999556541443,-0.8310999870300293,-0.2856000065803528
1570560675.45753,2019-10-08 12:51:15,4621.0,0.005204999819397926,0.017921000719070435,0.005419999826699495,0.04256099835038185,0.20360000431537628,-0.8422999978065491,-0.2890999913215637
1570560675.45753,2019-10-08 12:51:15,4622.0,0.00521400012075901,0.017714999616146088,0.0054270001128315926,0.042711999267339706,0.20170000195503235,-0.8661999702453613,-0.2827000021934509
1570560675.45753,2019-10-08 12:51:15,4623.0,0.00521400012075901,0.017364999279379845,0.005493000149726868,0.04308699816465378,0.20069999992847443,-0.9028000235557556,-0.2793000042438507
1570560675.45753,2019-10-08 12:51:15,4624.0,0.005113000050187111,0.01712699979543686,0.005499999970197678,0.043834999203681946,0.20649999380111694,-0.9150000214576721,-0.28029999136924744
1570560675.45753,2019-10-08 12:51:15,4625.0,0.0051020001992583275,0.016990000382065773,0.005628000013530254,0.04501400142908096,0.2070000022649765,-0.9253000020980835,-0.274399995803833
1570560675.4585273,2019-10-08 12:51:15,4626.0,0.005030999891459942,0.016870999708771706,0.005675999913364649,0.04628700017929077,0.20360000431537628,-0.9535999894142151,-0.2797999978065491
1570560675.4585273,2019-10-08 12:51:15,4627.0,0.00507699977606535,0.016834000125527382,0.005634999834001064,0.04758699983358383,0.20800000429153442,-0.923799991607666,-0.288100004196167
1570560675.4585273,2019-10-08 12:51:15,4628.0,0.005044999998062849,0.0167820006608963,0.005613999906927347,0.048399001359939575,0.20170000195503235,-0.926800012588501,-0.2865999937057495
1570560675.4585273,2019-10-08 12:51:15,4629.0,0.005042000208050013,0.016790999099612236,0.005594000220298767,0.048955999314785004,0.19629999995231628,-0.9189000129699707,-0.28519999980926514
1570560675.4585273,2019-10-08 12:51:15,4630.0,0.004991999827325344,0.016714999452233315,0.00558699993416667,0.04944499954581261,0.1923999935388565,-0.9193999767303467,-0.28519999980926514
1570560675.4585273,2019-10-08 12:51:15,4631.0,0.004999000113457441,0.016690000891685486,0.0056329998187720776,0.04980900138616562,0.1889999955892563,-0.9101999998092651,-0.2847000062465668
1570560676.1147735,2019-10-08 12:51:16,4632.0,0.0049669998697936535,0.016587000340223312,0.00558699993416667,0.05019399896264076,0.18799999356269836,-0.9110999703407288,-0.2870999872684479
1570560676.1955779,2019-10-08 12:51:16,4633.0,0.005001000128686428,0.016607999801635742,0.005646999925374985,0.05050500109791756,0.18700000643730164,-0.9121000170707703,-0.28369998931884766
1570560676.1955779,2019-10-08 12:51:16,4634.0,0.004978000186383724,0.016704000532627106,0.005619000177830458,0.05072899907827377,0.18310000002384186,-0.9115999937057495,-0.2847000062465668
1570560676.1955779,2019-10-08 12:51:16,4635.0,0.004947999957948923,0.016594000160694122,0.005665000062435865,0.05090999975800514,0.18310000002384186,-0.9154999852180481,-0.28519999980926514
1570560676.1955779,2019-10-08 12:51:16,4636.0,0.004931999836117029,0.016610000282526016,0.005628000013530254,0.05109599977731705,0.1875,-0.9160000085830688,-0.2870999872684479
1570560676.1955779,2019-10-08 12:51:16,4637.0,0.004918999969959259,0.016623999923467636,0.005588999949395657,0.05117600038647652,0.1898999959230423,-0.9121000170707703,-0.288100004196167
1570560676.1955779,2019-10-08 12:51:16,4638.0,0.004941999912261963,0.016614999622106552,0.005594000220298767,0.051288001239299774,0.19290000200271606,-0.9218999743461609,-0.28760001063346863
1570560676.1955779,2019-10-08 12:51:16,4639.0,0.004985000006854534,0.01664399914443493,0.005572999827563763,0.051270000636577606,0.19629999995231628,-0.9258000254631042,-0.29100000858306885
1570560676.1955779,2019-10-08 12:51:16,4640.0,0.004914000164717436,0.016681000590324402,0.005563999991863966,0.05117600038647652,0.19580000638961792,-0.9301999807357788,-0.28610000014305115
1570560676.1955779,2019-10-08 12:51:16,4641.0,0.004941999912261963,0.016682999208569527,0.005572999827563763,0.05098100006580353,0.19480000436306,-0.961899995803833,-0.28119999170303345
1570560676.1955779,2019-10-08 12:51:16,4642.0,0.004993999842554331,0.01674499921500683,0.005520999897271395,0.049651000648736954,0.19480000436306,-1.0463999509811401,-0.260699987411499
1570560676.1955779,2019-10-08 12:51:16,4643.0,0.005040000192821026,0.016850000247359276,0.005413000006228685,0.04604899883270264,0.2094999998807907,-1.0820000171661377,-0.2705000042915344
1570560676.1955779,2019-10-08 12:51:16,4644.0,0.005169999785721302,0.017328999936580658,0.005369999911636114,0.043219998478889465,0.23100000619888306,-0.8378999829292297,-0.28760001063346863
1570560676.1955779,2019-10-08 12:51:16,4645.0,0.005293999798595905,0.018518999218940735,0.005330999847501516,0.04225200042128563,0.1923999935388565,-0.7681000232696533,-0.2870999872684479
1570560676.1955779,2019-10-08 12:51:16,4646.0,0.005350999999791384,0.019520999863743782,0.005415000021457672,0.04211699962615967,0.211899995803833,-0.8467000126838684,-0.28119999170303345
1570560676.1955779,2019-10-08 12:51:16,4647.0,0.005355999805033207,0.020661000162363052,0.005429000128060579,0.04212300106883049,0.20170000195503235,-0.8428000211715698,-0.28220000863075256
1570560676.1955779,2019-10-08 12:51:16,4648.0,0.005255000200122595,0.02061299979686737,0.005421999841928482,0.042389001697301865,0.20559999346733093,-0.8389000296592712,-0.2734000086784363
1570560676.1955779,2019-10-08 12:51:16,4649.0,0.005164000205695629,0.019524000585079193,0.0053900000639259815,0.042789001017808914,0.20509999990463257,-0.8676999807357788,-0.2694999873638153
1570560676.1955779,2019-10-08 12:51:16,4650.0,0.0051020001992583275,0.018378999084234238,0.005584999918937683,0.043278999626636505,0.20309999585151672,-0.8920999765396118,-0.26269999146461487
1570560676.1955779,2019-10-08 12:51:16,4651.0,0.005127000156790018,0.017782000824809074,0.005650999955832958,0.04410799965262413,0.21089999377727509,-0.9434000253677368,-0.26759999990463257
1570560676.1955779,2019-10-08 12:51:16,4652.0,0.005133999977260828,0.01744999922811985,0.005727000068873167,0.04546999931335449,0.2061000019311905,-0.95169997215271,-0.2709999978542328
1570560676.1955779,2019-10-08 12:51:16,4653.0,0.005115999840199947,0.017325999215245247,0.005675999913364649,0.04684999957680702,0.19629999995231628,-0.9595000147819519,-0.2777999937534332
1570560676.1965578,2019-10-08 12:51:16,4654.0,0.0050650001503527164,0.017165999859571457,0.005752000026404858,0.04828299954533577,0.19920000433921814,-0.9404000043869019,-0.2847000062465668
1570560676.1965578,2019-10-08 12:51:16,4655.0,0.005026000086218119,0.01703600026667118,0.005710999947041273,0.049091000109910965,0.19920000433921814,-0.9258000254631042,-0.2865999937057495
1570560676.1965578,2019-10-08 12:51:16,4656.0,0.0049959998577833176,0.016919000074267387,0.005727000068873167,0.04987100139260292,0.19629999995231628,-0.9330999851226807,-0.28519999980926514
1570560676.1965578,2019-10-08 12:51:16,4657.0,0.005005999933928251,0.01686600036919117,0.005708000157028437,0.05034499987959862,0.19429999589920044,-0.9336000084877014,-0.2856000065803528
1570560676.1965578,2019-10-08 12:51:16,4658.0,0.005007999949157238,0.016790999099612236,0.005665000062435865,0.050602998584508896,0.19480000436306,-0.9169999957084656,-0.2847000062465668
1570560676.1965578,2019-10-08 12:51:16,4659.0,0.004974000155925751,0.016762999817728996,0.005650999955832958,0.050638001412153244,0.19629999995231628,-0.9193999767303467,-0.28519999980926514
1570560676.1965578,2019-10-08 12:51:16,4660.0,0.004987000022083521,0.016662999987602234,0.005683000199496746,0.05071600154042244,0.1973000019788742,-0.9169999957084656,-0.2831999957561493
1570560676.1965578,2019-10-08 12:51:16,4661.0,0.004947999957948923,0.01672700047492981,0.005619000177830458,0.05067700147628784,0.19779999554157257,-0.913100004196167,-0.2827000021934509
1570560676.1965578,2019-10-08 12:51:16,4662.0,0.004906999878585339,0.016620999202132225,0.005566000007092953,0.050641998648643494,0.19679999351501465,-0.9125999808311462,-0.2847000062465668
1570560676.1965578,2019-10-08 12:51:16,4663.0,0.004902999848127365,0.01658499985933304,0.0055599999614059925,0.05055300146341324,0.19580000638961792,-0.9110999703407288,-0.2831999957561493
1570560676.769024,2019-10-08 12:51:16,4664.0,0.0049390001222491264,0.01653899997472763,0.005539000034332275,0.05050000175833702,0.19779999554157257,-0.9086999893188477,-0.2831999957561493
1570560676.769024,2019-10-08 12:51:16,4665.0,0.004916000179946423,0.016561999917030334,0.005553000140935183,0.05057099834084511,0.19480000436306,-0.9179999828338623,-0.2847000062465668
1570560676.769024,2019-10-08 12:51:16,4666.0,0.004902999848127365,0.01655999943614006,0.0054339999333024025,0.050602998584508896,0.20069999992847443,-0.9199000000953674,-0.28119999170303345
1570560676.769024,2019-10-08 12:51:16,4667.0,0.004877000115811825,0.01656400039792061,0.005489000119268894,0.05057799816131592,0.1996999979019165,-0.9096999764442444,-0.28119999170303345
1570560676.769024,2019-10-08 12:51:16,4668.0,0.004889000207185745,0.016506999731063843,0.0054339999333024025,0.050533000379800797,0.19869999587535858,-0.9086999893188477,-0.2808000147342682
1570560676.769024,2019-10-08 12:51:16,4669.0,0.004873000085353851,0.016555000096559525,0.005429000128060579,0.05058100074529648,0.19679999351501465,-0.9189000129699707,-0.2827000021934509
1570560676.769024,2019-10-08 12:51:16,4670.0,0.004904999863356352,0.016596000641584396,0.005477000027894974,0.05052100121974945,0.1973000019788742,-0.9204000234603882,-0.2856000065803528
1570560676.769024,2019-10-08 12:51:16,4671.0,0.004918999969959259,0.016596000641584396,0.005493000149726868,0.05050500109791756,0.20020000636577606,-0.9179999828338623,-0.2856000065803528
1570560676.769024,2019-10-08 12:51:16,4672.0,0.004875000100582838,0.016493000090122223,0.0054339999333024025,0.05039700120687485,0.19629999995231628,-0.9189000129699707,-0.2842000126838684
1570560676.769024,2019-10-08 12:51:16,4673.0,0.004904999863356352,0.016534000635147095,0.005423999857157469,0.05036100000143051,0.19629999995231628,-0.9110999703407288,-0.2847000062465668
1570560676.769024,2019-10-08 12:51:16,4674.0,0.004891000222414732,0.01655999943614006,0.0054060001857578754,0.050262000411748886,0.1973000019788742,-0.9136000275611877,-0.28369998931884766
1570560676.769024,2019-10-08 12:51:16,4675.0,0.0049390001222491264,0.016617000102996826,0.0053969998843967915,0.050214000046253204,0.19679999351501465,-0.92330002784729,-0.28519999980926514
1570560676.769024,2019-10-08 12:51:16,4676.0,0.0048870001919567585,0.01657800003886223,0.005371999926865101,0.05020799860358238,0.19679999351501465,-0.9193999767303467,-0.2865999937057495
1570560676.769024,2019-10-08 12:51:16,4677.0,0.004912000149488449,0.01659199967980385,0.005330999847501516,0.05006299912929535,0.19529999792575836,-0.9199000000953674,-0.2856000065803528
1570560676.769024,2019-10-08 12:51:16,4678.0,0.004947999957948923,0.01656400039792061,0.005303000099956989,0.049942001700401306,0.19529999792575836,-0.9189000129699707,-0.2847000062465668
1570560676.769024,2019-10-08 12:51:16,4679.0,0.004914000164717436,0.016566000878810883,0.005295999813824892,0.049786001443862915,0.19529999792575836,-0.9164999723434448,-0.2831999957561493
1570560676.769024,2019-10-08 12:51:16,4680.0,0.004883999936282635,0.016652999445796013,0.005319000221788883,0.049678999930620193,0.19679999351501465,-0.9140999913215637,-0.28369998931884766
1570560676.769024,2019-10-08 12:51:16,4681.0,0.004883999936282635,0.016674000769853592,0.005379000212997198,0.049672000110149384,0.2020999938249588,-0.9169999957084656,-0.2831999957561493
1570560676.769024,2019-10-08 12:51:16,4682.0,0.004889000207185745,0.01663300022482872,0.0053010000847280025,0.04955099895596504,0.2020999938249588,-0.9121000170707703,-0.2808000147342682
1570560676.769024,2019-10-08 12:51:16,4683.0,0.00493700010702014,0.01662600040435791,0.0053400001488626,0.04951399937272072,0.20409999787807465,-0.9115999937057495,-0.2793000042438507
1570560676.769024,2019-10-08 12:51:16,4684.0,0.004914000164717436,0.016665000468492508,0.005319000221788883,0.04944799840450287,0.20409999787807465,-0.9106000065803528,-0.2768999934196472
1570560676.769024,2019-10-08 12:51:16,4685.0,0.004925999790430069,0.01669500023126602,0.005278000142425299,0.049431998282670975,0.20649999380111694,-0.9125999808311462,-0.2782999873161316
1570560676.769024,2019-10-08 12:51:16,4686.0,0.004920999985188246,0.01673099957406521,0.005262000020593405,0.04942699894309044,0.20409999787807465,-0.9160000085830688,-0.2768999934196472
1570560676.7700207,2019-10-08 12:51:16,4687.0,0.004881999921053648,0.016767999157309532,0.005371999926865101,0.04954800009727478,0.1996999979019165,-0.9179999828338623,-0.2754000127315521
1570560676.7700207,2019-10-08 12:51:16,4688.0,0.004910000134259462,0.01670200005173683,0.0053170002065598965,0.04958299919962883,0.19869999587535858,-0.9140999913215637,-0.27639999985694885
1570560676.7700207,2019-10-08 12:51:16,4689.0,0.004925999790430069,0.01674499921500683,0.00522099994122982,0.049564000219106674,0.20260000228881836,-0.9150000214576721,-0.27390000224113464
1570560676.7700207,2019-10-08 12:51:16,4690.0,0.00494399992749095,0.016790999099612236,0.005243999883532524,0.04951399937272072,0.20069999992847443,-0.9096999764442444,-0.27390000224113464
1570560676.7700207,2019-10-08 12:51:16,4691.0,0.004904999863356352,0.016759000718593597,0.005229999776929617,0.04950699955224991,0.20309999585151672,-0.9096999764442444,-0.27489998936653137
1570560676.7700207,2019-10-08 12:51:16,4692.0,0.004902999848127365,0.016795000061392784,0.005222999956458807,0.049479998648166656,0.20409999787807465,-0.9121000170707703,-0.2759000062942505
1570560676.7700207,2019-10-08 12:51:16,4693.0,0.0049600000493228436,0.01677500084042549,0.005235000047832727,0.04946599900722504,0.20649999380111694,-0.9140999913215637,-0.27639999985694885
1570560676.7700207,2019-10-08 12:51:16,4694.0,0.0049299998208880424,0.016857000067830086,0.005222999956458807,0.04953499883413315,0.20509999990463257,-0.9175000190734863,-0.2768999934196472
1570560676.7700207,2019-10-08 12:51:16,4695.0,0.004987000022083521,0.0168210007250309,0.005231999792158604,0.049504999071359634,0.20170000195503235,-0.9193999767303467,-0.27639999985694885
1570560677.3704178,2019-10-08 12:51:17,4696.0,0.004902999848127365,0.016889000311493874,0.00520200002938509,0.049552999436855316,0.2020999938249588,-0.9175000190734863,-0.2777999937534332
1570560677.446223,2019-10-08 12:51:17,4697.0,0.004900000058114529,0.016863999888300896,0.0052189999260008335,0.049571000039577484,0.20309999585151672,-0.9179999828338623,-0.27730000019073486
1570560677.446223,2019-10-08 12:51:17,4698.0,0.00494399992749095,0.01687300018966198,0.005216000135987997,0.049633000046014786,0.20360000431537628,-0.9175000190734863,-0.2759000062942505
1570560677.446223,2019-10-08 12:51:17,4699.0,0.0049669998697936535,0.01692800037562847,0.00520200002938509,0.04962800070643425,0.20360000431537628,-0.9146000146865845,-0.274399995803833
1570560677.446223,2019-10-08 12:51:17,4700.0,0.0049390001222491264,0.01695599965751171,0.00522099994122982,0.049619000405073166,0.20360000431537628,-0.9106000065803528,-0.2734000086784363
1570560677.446223,2019-10-08 12:51:17,4701.0,0.004935000091791153,0.016902999952435493,0.005216000135987997,0.049626000225543976,0.19869999587535858,-0.9169999957084656,-0.27730000019073486
1570560677.446223,2019-10-08 12:51:17,4702.0,0.0049600000493228436,0.016783999279141426,0.005177000071853399,0.049410998821258545,0.1973000019788742,-0.92330002784729,-0.28029999136924744
1570560677.446223,2019-10-08 12:51:17,4703.0,0.004931999836117029,0.016652999445796013,0.005152000114321709,0.04927799850702286,0.1973000019788742,-0.9247999787330627,-0.2827000021934509
1570560677.446223,2019-10-08 12:51:17,4704.0,0.0048870001919567585,0.016628000885248184,0.005247999913990498,0.04916200041770935,0.19820000231266022,-0.9199000000953674,-0.2816999852657318
1570560677.446223,2019-10-08 12:51:17,4705.0,0.0049390001222491264,0.016522999852895737,0.005179999861866236,0.04896000027656555,0.20170000195503235,-0.9140999913215637,-0.2777999937534332
1570560677.446223,2019-10-08 12:51:17,4706.0,0.004875000100582838,0.01651199907064438,0.0051819998770952225,0.04889800027012825,0.20069999992847443,-0.9136000275611877,-0.27639999985694885
1570560677.446223,2019-10-08 12:51:17,4707.0,0.004883999936282635,0.016486000269651413,0.005131999962031841,0.04875599965453148,0.20069999992847443,-0.9146000146865845,-0.2759000062942505
1570560677.446223,2019-10-08 12:51:17,4708.0,0.004854999948292971,0.01647300086915493,0.005119999870657921,0.048673998564481735,0.19920000433921814,-0.9140999913215637,-0.2759000062942505
1570560677.446223,2019-10-08 12:51:17,4709.0,0.004927999805659056,0.016513999551534653,0.005158999934792519,0.04861700162291527,0.19869999587535858,-0.9160000085830688,-0.2768999934196472
1570560677.446223,2019-10-08 12:51:17,4710.0,0.004875000100582838,0.016481999307870865,0.0050929998978972435,0.048548001796007156,0.2011999934911728,-0.913100004196167,-0.2754000127315521
1570560677.446223,2019-10-08 12:51:17,4711.0,0.004858999978750944,0.01643799990415573,0.005148000083863735,0.048587001860141754,0.20020000636577606,-0.9154999852180481,-0.2759000062942505
1570560677.446223,2019-10-08 12:51:17,4712.0,0.004875000100582838,0.01639300025999546,0.005106000229716301,0.048507001250982285,0.2011999934911728,-0.9169999957084656,-0.2777999937534332
1570560677.446223,2019-10-08 12:51:17,4713.0,0.004858999978750944,0.016398999840021133,0.005121999885886908,0.04848900064826012,0.2061000019311905,-0.9189000129699707,-0.2768999934196472
1570560677.446223,2019-10-08 12:51:17,4714.0,0.004892999771982431,0.01641100086271763,0.00509499991312623,0.04844700172543526,0.20260000228881836,-0.923799991607666,-0.2777999937534332
1570560677.446223,2019-10-08 12:51:17,4715.0,0.0048409998416900635,0.01635099947452545,0.005098999943584204,0.04839500039815903,0.20900000631809235,-0.9193999767303467,-0.27639999985694885
1570560677.446223,2019-10-08 12:51:17,4716.0,0.004852000158280134,0.016409000381827354,0.005133999977260828,0.04847700148820877,0.21040000021457672,-0.9106000065803528,-0.2754000127315521
1570560677.446223,2019-10-08 12:51:17,4717.0,0.004892999771982431,0.01645199954509735,0.005117999855428934,0.04852300137281418,0.20749999582767487,-0.9101999998092651,-0.27489998936653137
1570560677.446223,2019-10-08 12:51:17,4718.0,0.004852000158280134,0.016426999121904373,0.005127000156790018,0.0484590008854866,0.20509999990463257,-0.9164999723434448,-0.27639999985694885
1570560677.446223,2019-10-08 12:51:17,4719.0,0.004904999863356352,0.016426999121904373,0.005090000107884407,0.0484590008854866,0.20409999787807465,-0.9193999767303467,-0.2759000062942505
1570560677.446223,2019-10-08 12:51:17,4720.0,0.004844999872148037,0.016380999237298965,0.0051020001992583275,0.048335000872612,0.19820000231266022,-0.9175000190734863,-0.27390000224113464
1570560677.4472141,2019-10-08 12:51:17,4721.0,0.0048340000212192535,0.016395000740885735,0.005096999928355217,0.04832400009036064,0.19869999587535858,-0.9154999852180481,-0.2728999853134155
1570560677.4472141,2019-10-08 12:51:17,4722.0,0.00482900021597743,0.01642500050365925,0.005140999797731638,0.04829400032758713,0.19580000638961792,-0.9092000126838684,-0.27250000834465027
1570560677.4472141,2019-10-08 12:51:17,4723.0,0.004852000158280134,0.016409000381827354,0.0050929998978972435,0.048257000744342804,0.19779999554157257,-0.9175000190734863,-0.27489998936653137
1570560677.4472141,2019-10-08 12:51:17,4724.0,0.004873000085353851,0.016434000805020332,0.005047000013291836,0.04821399971842766,0.19629999995231628,-0.9189000129699707,-0.2759000062942505
1570560677.4472141,2019-10-08 12:51:17,4725.0,0.0048340000212192535,0.016435999423265457,0.0051020001992583275,0.048211999237537384,0.19869999587535858,-0.9179999828338623,-0.2759000062942505
1570560677.4472141,2019-10-08 12:51:17,4726.0,0.004863999783992767,0.016450000926852226,0.00508299982175231,0.04822999984025955,0.2011999934911728,-0.9208999872207642,-0.2777999937534332
1570560677.4472141,2019-10-08 12:51:17,4727.0,0.004856999963521957,0.01639699935913086,0.00507699977606535,0.0482029989361763,0.20309999585151672,-0.9189000129699707,-0.27730000019073486
1570560678.0206778,2019-10-08 12:51:18,4728.0,0.0048340000212192535,0.016414999961853027,0.0050650001503527164,0.04820900037884712,0.20170000195503235,-0.9164999723434448,-0.2768999934196472
1570560678.0206778,2019-10-08 12:51:18,4729.0,0.004848000127822161,0.016454000025987625,0.0050490000285208225,0.048225000500679016,0.20309999585151672,-0.9140999913215637,-0.274399995803833
1570560678.0206778,2019-10-08 12:51:18,4730.0,0.004825000185519457,0.016412999480962753,0.0050490000285208225,0.048245999962091446,0.2061000019311905,-0.9146000146865845,-0.27489998936653137
1570560678.0206778,2019-10-08 12:51:18,4731.0,0.004854999948292971,0.01645899936556816,0.00509499991312623,0.048347000032663345,0.20409999787807465,-0.9121000170707703,-0.2720000147819519
1570560678.0206778,2019-10-08 12:51:18,4732.0,0.004865999799221754,0.016467999666929245,0.005127000156790018,0.04838100075721741,0.20509999990463257,-0.9110999703407288,-0.26899999380111694
1570560678.0206778,2019-10-08 12:51:18,4733.0,0.004875000100582838,0.016527999192476273,0.0050650001503527164,0.048493001610040665,0.20260000228881836,-0.9160000085830688,-0.27250000834465027
1570560678.0206778,2019-10-08 12:51:18,4734.0,0.004871000070124865,0.01650499925017357,0.005026000086218119,0.048434000462293625,0.20509999990463257,-0.9154999852180481,-0.2734000086784363
1570560678.0206778,2019-10-08 12:51:18,4735.0,0.004865999799221754,0.01649099960923195,0.0051380000077188015,0.0485370010137558,0.20409999787807465,-0.9185000061988831,-0.274399995803833
1570560678.0206778,2019-10-08 12:51:18,4736.0,0.0048500001430511475,0.016529999673366547,0.005119999870657921,0.048608001321554184,0.20649999380111694,-0.9150000214576721,-0.27390000224113464
1570560678.0206778,2019-10-08 12:51:18,4737.0,0.004883999936282635,0.016513999551534653,0.005096999928355217,0.048576001077890396,0.20649999380111694,-0.9115999937057495,-0.2734000086784363
1570560678.0206778,2019-10-08 12:51:18,4738.0,0.004860999993979931,0.01648399978876114,0.005080999806523323,0.048601001501083374,0.20509999990463257,-0.9140999913215637,-0.27390000224113464
1570560678.0206778,2019-10-08 12:51:18,4739.0,0.004883999936282635,0.01661200076341629,0.0050650001503527164,0.04864000156521797,0.20260000228881836,-0.9175000190734863,-0.27489998936653137
1570560678.0206778,2019-10-08 12:51:18,4740.0,0.004852000158280134,0.016580000519752502,0.005106000229716301,0.04864399880170822,0.20069999992847443,-0.9169999957084656,-0.27639999985694885
1570560678.0206778,2019-10-08 12:51:18,4741.0,0.004848000127822161,0.016566000878810883,0.005133999977260828,0.048695001751184464,0.2011999934911728,-0.9160000085830688,-0.27489998936653137
1570560678.0206778,2019-10-08 12:51:18,4742.0,0.004865999799221754,0.01655999943614006,0.0051020001992583275,0.048739999532699585,0.20260000228881836,-0.9154999852180481,-0.2728999853134155
1570560678.0206778,2019-10-08 12:51:18,4743.0,0.004896000027656555,0.01660499908030033,0.005073999986052513,0.04873599857091904,0.20260000228881836,-0.9160000085830688,-0.2728999853134155
1570560678.0206778,2019-10-08 12:51:18,4744.0,0.004910000134259462,0.01664699986577034,0.005106000229716301,0.04868999868631363,0.19679999351501465,-0.9164999723434448,-0.27489998936653137
1570560678.0206778,2019-10-08 12:51:18,4745.0,0.004875000100582838,0.016652999445796013,0.005096999928355217,0.04878599941730499,0.2020999938249588,-0.9179999828338623,-0.2754000127315521
1570560678.0206778,2019-10-08 12:51:18,4746.0,0.004896000027656555,0.01669899933040142,0.005057999864220619,0.048868998885154724,0.20360000431537628,-0.9160000085830688,-0.2777999937534332
1570560678.0206778,2019-10-08 12:51:18,4747.0,0.004912000149488449,0.016651000827550888,0.005047000013291836,0.048829998821020126,0.2084999978542328,-0.9169999957084656,-0.2759000062942505
1570560678.0206778,2019-10-08 12:51:18,4748.0,0.004916000179946423,0.016651000827550888,0.00506300013512373,0.04892300069332123,0.20649999380111694,-0.9125999808311462,-0.27639999985694885
1570560678.0206778,2019-10-08 12:51:18,4749.0,0.004871000070124865,0.016614999622106552,0.0051020001992583275,0.048781998455524445,0.20260000228881836,-0.9160000085830688,-0.2782999873161316
1570560678.0206778,2019-10-08 12:51:18,4750.0,0.004889000207185745,0.016454000025987625,0.005080999806523323,0.04863699898123741,0.2011999934911728,-0.9253000020980835,-0.28029999136924744
1570560678.0206778,2019-10-08 12:51:18,4751.0,0.00484299985691905,0.01633100025355816,0.00508800009265542,0.048569001257419586,0.19820000231266022,-0.926800012588501,-0.2793000042438507
1570560678.0206778,2019-10-08 12:51:18,4752.0,0.00481100007891655,0.016259999945759773,0.005044999998062849,0.04845400154590607,0.20170000195503235,-0.9185000061988831,-0.2816999852657318
1570560678.0206778,2019-10-08 12:51:18,4753.0,0.004809000063687563,0.016161000356078148,0.005022000055760145,0.048347000032663345,0.20409999787807465,-0.913100004196167,-0.2793000042438507
1570560678.0206778,2019-10-08 12:51:18,4754.0,0.004848000127822161,0.016200000420212746,0.005032999906688929,0.04832199960947037,0.20559999346733093,-0.9106000065803528,-0.27639999985694885
1570560678.0216753,2019-10-08 12:51:18,4755.0,0.004813000094145536,0.016202999278903008,0.005044999998062849,0.04831000044941902,0.20360000431537628,-0.9150000214576721,-0.2734000086784363
1570560678.0216753,2019-10-08 12:51:18,4756.0,0.004819999914616346,0.01622300036251545,0.005034999921917915,0.04830799996852875,0.20309999585151672,-0.9146000146865845,-0.274399995803833
1570560678.0216753,2019-10-08 12:51:18,4757.0,0.004767999984323978,0.01613200083374977,0.005022000055760145,0.04825500026345253,0.20509999990463257,-0.9121000170707703,-0.2759000062942505
1570560678.0216753,2019-10-08 12:51:18,4758.0,0.004883999936282635,0.016147999092936516,0.0050130002200603485,0.04822799935936928,0.20509999990463257,-0.9160000085830688,-0.2777999937534332
1570560678.0216753,2019-10-08 12:51:18,4759.0,0.00482300017029047,0.016177000477910042,0.004978000186383724,0.048151999711990356,0.20559999346733093,-0.9164999723434448,-0.2759000062942505
1570560678.6749287,2019-10-08 12:51:18,4760.0,0.004765000194311142,0.016112999990582466,0.005030999891459942,0.04809499904513359,0.20020000636577606,-0.9193999767303467,-0.2782999873161316
1570560678.7567117,2019-10-08 12:51:18,4761.0,0.004774000030010939,0.016195999458432198,0.005042000208050013,0.04816100001335144,0.2061000019311905,-0.9247999787330627,-0.27730000019073486
1570560678.7577107,2019-10-08 12:51:18,4762.0,0.004776999820023775,0.016119999811053276,0.004974000155925751,0.04815699905157089,0.20999999344348907,-0.9169999957084656,-0.27639999985694885
1570560678.7577107,2019-10-08 12:51:18,4763.0,0.004807000048458576,0.016140999272465706,0.005014999769628048,0.04814799875020981,0.21089999377727509,-0.9082000255584717,-0.27390000224113464
1570560678.7577107,2019-10-08 12:51:18,4764.0,0.004865999799221754,0.016172999516129494,0.005022000055760145,0.04811999946832657,0.20999999344348907,-0.9110999703407288,-0.2759000062942505
1570560678.7577107,2019-10-08 12:51:18,4765.0,0.004809000063687563,0.016186999157071114,0.005071999970823526,0.04808599874377251,0.20649999380111694,-0.92330002784729,-0.274399995803833
1570560678.7577107,2019-10-08 12:51:18,4766.0,0.004788000136613846,0.016188999637961388,0.005024000070989132,0.04799700155854225,0.2046000063419342,-0.9282000064849854,-0.2734000086784363
1570560678.7577107,2019-10-08 12:51:18,4767.0,0.004784000106155872,0.016161000356078148,0.005040000192821026,0.04776500165462494,0.20020000636577606,-0.9375,-0.27149999141693115
1570560678.7577107,2019-10-08 12:51:18,4768.0,0.004848000127822161,0.016133999451994896,0.004953000228852034,0.04713800176978111,0.20360000431537628,-0.9077000021934509,-0.27489998936653137
1570560678.7577107,2019-10-08 12:51:18,4769.0,0.00482900021597743,0.016301000490784645,0.004931999836117029,0.04640800133347511,0.2070000022649765,-0.8925999999046326,-0.2777999937534332
1570560678.7577107,2019-10-08 12:51:18,4770.0,0.004856999963521957,0.016289999708533287,0.005024000070989132,0.04590199887752533,0.2046000063419342,-0.913100004196167,-0.2754000127315521
1570560678.7577107,2019-10-08 12:51:18,4771.0,0.004867999814450741,0.016347000375390053,0.004980000201612711,0.04570100083947182,0.19920000433921814,-0.9380000233650208,-0.26660001277923584
1570560678.7577107,2019-10-08 12:51:18,4772.0,0.004860999993979931,0.01635799929499626,0.005005999933928251,0.04523799940943718,0.19629999995231628,-1.0170999765396118,-0.24070000648498535
1570560678.7577107,2019-10-08 12:51:18,4773.0,0.004896000027656555,0.01641800068318844,0.004858999978750944,0.04307600110769272,0.21879999339580536,-1.0928000211715698,-0.2621999979019165
1570560678.7577107,2019-10-08 12:51:18,4774.0,0.005009999964386225,0.016776999458670616,0.004877000115811825,0.04030400142073631,0.21969999372959137,-0.7939000129699707,-0.28220000863075256
1570560678.7577107,2019-10-08 12:51:18,4775.0,0.005016999784857035,0.017640000209212303,0.004918999969959259,0.0396450012922287,0.21480000019073486,-0.8184000253677368,-0.27489998936653137
1570560678.7577107,2019-10-08 12:51:18,4776.0,0.00508800009265542,0.01826700009405613,0.004974000155925751,0.03955800086259842,0.2290000021457672,-0.8647000193595886,-0.27639999985694885
1570560678.7577107,2019-10-08 12:51:18,4777.0,0.0050650001503527164,0.018557999283075333,0.005018999800086021,0.03966499865055084,0.22310000658035278,-0.8285999894142151,-0.27149999141693115
1570560678.7577107,2019-10-08 12:51:18,4778.0,0.004999000113457441,0.01818699948489666,0.005047000013291836,0.04000899940729141,0.219200000166893,-0.8833000063896179,-0.260699987411499
1570560678.7577107,2019-10-08 12:51:18,4779.0,0.004951000213623047,0.017642000690102577,0.005166000220924616,0.04028499871492386,0.211899995803833,-0.9312000274658203,-0.25589999556541443
1570560678.7577107,2019-10-08 12:51:18,4780.0,0.0049390001222491264,0.017271000891923904,0.005177000071853399,0.04071100056171417,0.2084999978542328,-0.9375,-0.2533999979496002
1570560678.7577107,2019-10-08 12:51:18,4781.0,0.004898000042885542,0.01711300015449524,0.005260000005364418,0.04129699990153313,0.21439999341964722,-0.9520999789237976,-0.2572999894618988
1570560678.7577107,2019-10-08 12:51:18,4782.0,0.004970999900251627,0.01706100068986416,0.005280000157654285,0.04169299826025963,0.21040000021457672,-0.9380000233650208,-0.2583000063896179
1570560678.7577107,2019-10-08 12:51:18,4783.0,0.004978000186383724,0.01706100068986416,0.00532200001180172,0.04192899912595749,0.21240000426769257,-0.9365000128746033,-0.2660999894142151
1570560678.7577107,2019-10-08 12:51:18,4784.0,0.004987000022083521,0.01710899919271469,0.005305000115185976,0.04193300008773804,0.21040000021457672,-0.9106000065803528,-0.2660999894142151
1570560678.7577107,2019-10-08 12:51:18,4785.0,0.005001000128686428,0.017162000760436058,0.005357999820262194,0.041992999613285065,0.211899995803833,-0.9330999851226807,-0.26420000195503235
1570560678.7577107,2019-10-08 12:51:18,4786.0,0.005038000177592039,0.01722100004553795,0.00535399978980422,0.04203899949789047,0.2094999998807907,-0.9398999810218811,-0.2583000063896179
1570560678.7577107,2019-10-08 12:51:18,4787.0,0.005090000107884407,0.017347000539302826,0.005344000179320574,0.04193999990820885,0.21729999780654907,-0.9624000191688538,-0.25679999589920044
1570560678.7577107,2019-10-08 12:51:18,4788.0,0.005104000214487314,0.017627999186515808,0.005299000069499016,0.041763998568058014,0.21389999985694885,-0.9634000062942505,-0.24899999797344208
1570560678.7577107,2019-10-08 12:51:18,4789.0,0.0051750000566244125,0.018149999901652336,0.005344000179320574,0.04165399819612503,0.2328999936580658,-0.8988999724388123,-0.27149999141693115
1570560678.7577107,2019-10-08 12:51:18,4790.0,0.005179999861866236,0.018711000680923462,0.005394999869167805,0.04160400107502937,0.21439999341964722,-0.8378999829292297,-0.2694999873638153
1570560678.7577107,2019-10-08 12:51:18,4791.0,0.005173000041395426,0.018890000879764557,0.0053969998843967915,0.04173000156879425,0.23970000445842743,-0.8734999895095825,-0.2754000127315521
1570560679.2793133,2019-10-08 12:51:19,4792.0,0.0052089998498559,0.018727000802755356,0.0053900000639259815,0.04184599965810776,0.22509999573230743,-0.8682000041007996,-0.2671000063419342
1570560679.2793133,2019-10-08 12:51:19,4793.0,0.005169999785721302,0.018257999792695045,0.0054410002194345,0.0419979989528656,0.2240999937057495,-0.8949999809265137,-0.263700008392334
1570560679.2793133,2019-10-08 12:51:19,4794.0,0.005121999885886908,0.017836999148130417,0.005421999841928482,0.04215500131249428,0.219200000166893,-0.8974999785423279,-0.2621999979019165
1570560679.2793133,2019-10-08 12:51:19,4795.0,0.005067000165581703,0.01745700091123581,0.005518000107258558,0.04244399815797806,0.20900000631809235,-0.9053000211715698,-0.263700008392334
1570560679.2793133,2019-10-08 12:51:19,4796.0,0.0050650001503527164,0.017170999199151993,0.005561999976634979,0.04307800158858299,0.2046000063419342,-0.951200008392334,-0.2583000063896179
1570560679.2793133,2019-10-08 12:51:19,4797.0,0.005053999833762646,0.01687300018966198,0.005568999797105789,0.04372299835085869,0.21040000021457672,-0.9696999788284302,-0.26510000228881836
1570560679.279743,2019-10-08 12:51:19,4798.0,0.005009999964386225,0.016838999465107918,0.0055229999125003815,0.043956998735666275,0.20999999344348907,-0.9179999828338623,-0.2705000042915344
1570560679.279743,2019-10-08 12:51:19,4799.0,0.005001000128686428,0.016795000061392784,0.0055069997906684875,0.04406899958848953,0.2070000022649765,-0.9340999722480774,-0.26759999990463257
1570560679.279743,2019-10-08 12:51:19,4800.0,0.0049959998577833176,0.016739999875426292,0.005526999942958355,0.044043999165296555,0.211899995803833,-0.9380000233650208,-0.26809999346733093
1570560679.279743,2019-10-08 12:51:19,4801.0,0.004978000186383724,0.016752000898122787,0.005477000027894974,0.04391099885106087,0.2094999998807907,-0.9307000041007996,-0.26809999346733093
1570560679.279743,2019-10-08 12:51:19,4802.0,0.005030999891459942,0.016805000603199005,0.005452000070363283,0.04354900121688843,0.21089999377727509,-0.9028000235557556,-0.2660999894142151
1570560679.279743,2019-10-08 12:51:19,4803.0,0.005034999921917915,0.016808999702334404,0.0054339999333024025,0.04315600171685219,0.211899995803833,-0.95169997215271,-0.25679999589920044
1570560679.279743,2019-10-08 12:51:19,4804.0,0.0050490000285208225,0.016984999179840088,0.005417999811470509,0.04249899834394455,0.21289999783039093,-0.9804999828338623,-0.24320000410079956
1570560679.279743,2019-10-08 12:51:19,4805.0,0.005133999977260828,0.017292000353336334,0.005388000048696995,0.04167500138282776,0.22849999368190765,-0.9560999870300293,-0.27000001072883606
1570560679.279743,2019-10-08 12:51:19,4806.0,0.005158999934792519,0.017802000045776367,0.005429000128060579,0.04138199985027313,0.21289999783039093,-0.8140000104904175,-0.26420000195503235
1570560679.279743,2019-10-08 12:51:19,4807.0,0.005154000129550695,0.018061000853776932,0.005394999869167805,0.04133100062608719,0.22220000624656677,-0.8970000147819519,-0.2694999873638153
1570560679.279743,2019-10-08 12:51:19,4808.0,0.005111000034958124,0.01810700073838234,0.005421999841928482,0.041356999427080154,0.22360000014305115,-0.8661999702453613,-0.26809999346733093
1570560679.279743,2019-10-08 12:51:19,4809.0,0.005142999812960625,0.017952999100089073,0.00545400008559227,0.04142500087618828,0.2240999937057495,-0.8744999766349792,-0.25929999351501465
1570560679.279743,2019-10-08 12:51:19,4810.0,0.005024000070989132,0.01760300062596798,0.005444999784231186,0.04148299992084503,0.22169999778270721,-0.9150000214576721,-0.25200000405311584
1570560679.279743,2019-10-08 12:51:19,4811.0,0.005024000070989132,0.017322000116109848,0.005491000134497881,0.04169100150465965,0.219200000166893,-0.9071999788284302,-0.2549000084400177
1570560679.279743,2019-10-08 12:51:19,4812.0,0.0049760001711547375,0.017117999494075775,0.005481999833136797,0.04189499840140343,0.21629999577999115,-0.9057999849319458,-0.25929999351501465
1570560679.2803109,2019-10-08 12:51:19,4813.0,0.0049299998208880424,0.016977999359369278,0.005504999775439501,0.042167000472545624,0.22169999778270721,-0.8978999853134155,-0.26420000195503235
1570560679.2803109,2019-10-08 12:51:19,4814.0,0.005022000055760145,0.016870999708771706,0.0055069997906684875,0.042711999267339706,0.218299999833107,-0.9229000210762024,-0.259799987077713
1570560679.2803109,2019-10-08 12:51:19,4815.0,0.004941999912261963,0.016822999343276024,0.005561999976634979,0.04335499927401543,0.21240000426769257,-0.9409000277519226,-0.2671000063419342
1570560679.2803109,2019-10-08 12:51:19,4816.0,0.004945999942719936,0.016766000539064407,0.005553000140935183,0.04377799853682518,0.2168000042438507,-0.9047999978065491,-0.26809999346733093
1570560679.2803109,2019-10-08 12:51:19,4817.0,0.004900000058114529,0.0167239997535944,0.005578000098466873,0.04418100044131279,0.20900000631809235,-0.9467999935150146,-0.27000001072883606
1570560679.2803109,2019-10-08 12:51:19,4818.0,0.0049600000493228436,0.016750000417232513,0.005534000229090452,0.04441000148653984,0.20749999582767487,-0.9067000150680542,-0.27639999985694885
1570560679.2803109,2019-10-08 12:51:19,4819.0,0.004953000228852034,0.0166849996894598,0.005547999870032072,0.044613998383283615,0.20749999582767487,-0.9038000106811523,-0.27639999985694885
1570560679.2803109,2019-10-08 12:51:19,4820.0,0.0049600000493228436,0.016675999388098717,0.005557000171393156,0.0452129989862442,0.20649999380111694,-0.9106000065803528,-0.2754000127315521
1570560679.2803109,2019-10-08 12:51:19,4821.0,0.004914000164717436,0.016659999266266823,0.005545999854803085,0.04598499834537506,0.2084999978542328,-0.926800012588501,-0.27390000224113464
1570560679.2803109,2019-10-08 12:51:19,4822.0,0.004900000058114529,0.016580000519752502,0.005524999927729368,0.046564001590013504,0.2084999978542328,-0.9276999831199646,-0.27489998936653137
1570560679.2803109,2019-10-08 12:51:19,4823.0,0.004912000149488449,0.016587000340223312,0.005543999839574099,0.0469370000064373,0.20900000631809235,-0.9312000274658203,-0.2734000086784363
1570560679.9275873,2019-10-08 12:51:19,4824.0,0.004910000134259462,0.01669199950993061,0.005539000034332275,0.04697300121188164,0.20900000631809235,-0.9208999872207642,-0.2768999934196472
1570560680.0004022,2019-10-08 12:51:20,4825.0,0.004891000222414732,0.01662600040435791,0.00548599986359477,0.04682200029492378,0.2084999978542328,-0.913100004196167,-0.2759000062942505
1570560680.0004022,2019-10-08 12:51:20,4826.0,0.004867999814450741,0.016649000346660614,0.0055160000920295715,0.04672199860215187,0.2084999978542328,-0.9312000274658203,-0.2705000042915344
1570560680.0004022,2019-10-08 12:51:20,4827.0,0.004865999799221754,0.016598999500274658,0.005499999970197678,0.046574998646974564,0.20900000631809235,-0.9746000170707703,-0.25589999556541443
1570560680.0004022,2019-10-08 12:51:20,4828.0,0.004918999969959259,0.016596000641584396,0.005442999769002199,0.04538699984550476,0.218299999833107,-1.0786000490188599,-0.2538999915122986
1570560680.0004022,2019-10-08 12:51:20,4829.0,0.0049390001222491264,0.016818000003695488,0.0053170002065598965,0.04258599877357483,0.21480000019073486,-0.8769999742507935,-0.2777999937534332
1570560680.0004022,2019-10-08 12:51:20,4830.0,0.005071999970823526,0.017285000532865524,0.005348999984562397,0.041248999536037445,0.20409999787807465,-0.8179000020027161,-0.26269999146461487
1570560680.0004022,2019-10-08 12:51:20,4831.0,0.005098999943584204,0.01756400056183338,0.005299000069499016,0.04095799848437309,0.22750000655651093,-0.8901000022888184,-0.2720000147819519
1570560680.0004022,2019-10-08 12:51:20,4832.0,0.005111000034958124,0.01802700012922287,0.005324000027030706,0.04094899818301201,0.21480000019073486,-0.8184000253677368,-0.27390000224113464
1570560680.0004022,2019-10-08 12:51:20,4833.0,0.005032999906688929,0.017988000065088272,0.005330999847501516,0.04109099879860878,0.21480000019073486,-0.8515999913215637,-0.27000001072883606
1570560680.0004022,2019-10-08 12:51:20,4834.0,0.005040000192821026,0.017619000747799873,0.005404000170528889,0.04125100001692772,0.21040000021457672,-0.8935999870300293,-0.263700008392334
1570560680.0004022,2019-10-08 12:51:20,4835.0,0.004974000155925751,0.01722799986600876,0.005404000170528889,0.04163400083780289,0.20749999582767487,-0.9067000150680542,-0.2660999894142151
1570560680.0004022,2019-10-08 12:51:20,4836.0,0.00494399992749095,0.01703600026667118,0.005489000119268894,0.04233400151133537,0.2070000022649765,-0.9115999937057495,-0.2671000063419342
1570560680.0004022,2019-10-08 12:51:20,4837.0,0.004987000022083521,0.016889000311493874,0.0055599999614059925,0.043699998408555984,0.21240000426769257,-0.9326000213623047,-0.27149999141693115
1570560680.0004022,2019-10-08 12:51:20,4838.0,0.004953000228852034,0.0168869998306036,0.005570999812334776,0.04581499844789505,0.211899995803833,-0.9467999935150146,-0.27250000834465027
1570560680.0004022,2019-10-08 12:51:20,4839.0,0.004987000022083521,0.01686600036919117,0.005566000007092953,0.047922998666763306,0.21289999783039093,-0.95169997215271,-0.2734000086784363
1570560680.0004022,2019-10-08 12:51:20,4840.0,0.004916000179946423,0.016790999099612236,0.0055959997698664665,0.04914600029587746,0.20800000429153442,-0.9526000022888184,-0.27489998936653137
1570560680.0004022,2019-10-08 12:51:20,4841.0,0.004906999878585339,0.016603000462055206,0.005582000128924847,0.04942899942398071,0.20020000636577606,-0.9404000043869019,-0.28029999136924744
1570560680.0004022,2019-10-08 12:51:20,4842.0,0.004863999783992767,0.01647699996829033,0.005537000019103289,0.049215998500585556,0.20170000195503235,-0.9218999743461609,-0.2797999978065491
1570560680.0004022,2019-10-08 12:51:20,4843.0,0.004844999872148037,0.016308000311255455,0.005541000049561262,0.04885699972510338,0.20360000431537628,-0.9253000020980835,-0.2754000127315521
1570560680.0004022,2019-10-08 12:51:20,4844.0,0.00484299985691905,0.016321999952197075,0.005493000149726868,0.04836300015449524,0.20260000228881836,-0.9390000104904175,-0.26899999380111694
1570560680.001386,2019-10-08 12:51:20,4845.0,0.00481100007891655,0.01627800054848194,0.00545400008559227,0.04728199914097786,0.20999999344348907,-0.9423999786376953,-0.26660001277923584
1570560680.001386,2019-10-08 12:51:20,4846.0,0.004867999814450741,0.016315000131726265,0.0054270001128315926,0.04510999843478203,0.21529999375343323,-0.9657999873161316,-0.25540000200271606
1570560680.001386,2019-10-08 12:51:20,4847.0,0.004881999921053648,0.01638299971818924,0.0053400001488626,0.04281900078058243,0.219200000166893,-1.0336999893188477,-0.260699987411499
1570560680.001386,2019-10-08 12:51:20,4848.0,0.00496200006455183,0.01672700047492981,0.005278000142425299,0.04116399958729744,0.218299999833107,-0.8281000256538391,-0.2797999978065491
1570560680.001386,2019-10-08 12:51:20,4849.0,0.00508800009265542,0.017110999673604965,0.005309999920427799,0.04069500043988228,0.22120000422000885,-0.7846999764442444,-0.2759000062942505
1570560680.001386,2019-10-08 12:51:20,4850.0,0.005028999876230955,0.017389999702572823,0.005311999935656786,0.04050099849700928,0.21780000627040863,-0.8539999723434448,-0.27730000019073486
1570560680.001386,2019-10-08 12:51:20,4851.0,0.004974000155925751,0.017243999987840652,0.005268999841064215,0.0406309999525547,0.219200000166893,-0.8438000082969666,-0.2705000042915344
1570560680.001386,2019-10-08 12:51:20,4852.0,0.004974000155925751,0.016909999772906303,0.005309999920427799,0.04085500165820122,0.2168000042438507,-0.8877000212669373,-0.26759999990463257
1570560680.001386,2019-10-08 12:51:20,4853.0,0.004989999812096357,0.01661200076341629,0.005371999926865101,0.04149400070309639,0.21140000224113464,-0.8984000086784363,-0.2685999870300293
1570560680.001386,2019-10-08 12:51:20,4854.0,0.0049600000493228436,0.01643100008368492,0.0054060001857578754,0.04290800169110298,0.21580000221729279,-0.9330999851226807,-0.2660999894142151
1570560680.001386,2019-10-08 12:51:20,4855.0,0.004925999790430069,0.016349000856280327,0.005483999848365784,0.045162998139858246,0.2168000042438507,-0.9491999745368958,-0.27000001072883606
1570560680.5798366,2019-10-08 12:51:20,4856.0,0.004918999969959259,0.01630299910902977,0.005483999848365784,0.04767199978232384,0.21240000426769257,-0.9390000104904175,-0.27149999141693115
1570560680.5798366,2019-10-08 12:51:20,4857.0,0.004883999936282635,0.01622300036251545,0.005541000049561262,0.04922100156545639,0.20900000631809235,-0.9369999766349792,-0.2782999873161316
1570560680.5798366,2019-10-08 12:51:20,4858.0,0.004875000100582838,0.016116000711917877,0.005493000149726868,0.050315000116825104,0.2094999998807907,-0.9229000210762024,-0.28119999170303345
1570560680.5798366,2019-10-08 12:51:20,4859.0,0.0048409998416900635,0.016100000590085983,0.0055229999125003815,0.05110200121998787,0.20309999585151672,-0.9291999936103821,-0.28220000863075256
1570560680.5798366,2019-10-08 12:51:20,4860.0,0.004776999820023775,0.016057999804615974,0.005545999854803085,0.051743000745773315,0.1996999979019165,-0.9179999828338623,-0.2847000062465668
1570560680.5798366,2019-10-08 12:51:20,4861.0,0.004772000014781952,0.016061000525951385,0.005526999942958355,0.052253998816013336,0.19920000433921814,-0.9110999703407288,-0.2847000062465668
1570560680.5798366,2019-10-08 12:51:20,4862.0,0.004767999984323978,0.01596900075674057,0.005495000164955854,0.052629001438617706,0.20309999585151672,-0.9169999957084656,-0.2856000065803528
1570560680.5798366,2019-10-08 12:51:20,4863.0,0.004838999826461077,0.015953000634908676,0.005518000107258558,0.05297200009226799,0.20170000195503235,-0.9150000214576721,-0.28760001063346863
1570560680.5798366,2019-10-08 12:51:20,4864.0,0.004788000136613846,0.015951000154018402,0.005553000140935183,0.053231000900268555,0.20309999585151672,-0.9150000214576721,-0.288100004196167
1570560680.5798366,2019-10-08 12:51:20,4865.0,0.004772000014781952,0.015980999916791916,0.005557000171393156,0.053560998290777206,0.2011999934911728,-0.9160000085830688,-0.28760001063346863
1570560680.5798366,2019-10-08 12:51:20,4866.0,0.004774000030010939,0.015951000154018402,0.005526999942958355,0.053867001086473465,0.1996999979019165,-0.9189000129699707,-0.288100004196167
1570560680.5798366,2019-10-08 12:51:20,4867.0,0.0047610001638531685,0.0158890001475811,0.005472999997437,0.05396300181746483,0.19920000433921814,-0.9140999913215637,-0.2865999937057495
1570560680.5798366,2019-10-08 12:51:20,4868.0,0.0047900001518428326,0.015866000205278397,0.005504999775439501,0.05406399816274643,0.20170000195503235,-0.9136000275611877,-0.28610000014305115
1570560680.5798366,2019-10-08 12:51:20,4869.0,0.004801999777555466,0.015946000814437866,0.0055160000920295715,0.054120998829603195,0.20409999787807465,-0.9101999998092651,-0.28859999775886536
1570560680.5798366,2019-10-08 12:51:20,4870.0,0.004749000072479248,0.015999000519514084,0.00548599986359477,0.05422699823975563,0.20559999346733093,-0.9096999764442444,-0.2865999937057495
1570560680.5798366,2019-10-08 12:51:20,4871.0,0.004801999777555466,0.0159939993172884,0.00548599986359477,0.05436199903488159,0.2046000063419342,-0.9121000170707703,-0.2865999937057495
1570560680.5798366,2019-10-08 12:51:20,4872.0,0.004832000005990267,0.015985000878572464,0.005442999769002199,0.054538000375032425,0.20409999787807465,-0.9164999723434448,-0.2890999913215637
1570560680.5798366,2019-10-08 12:51:20,4873.0,0.004832000005990267,0.015941999852657318,0.005444999784231186,0.05459300056099892,0.20509999990463257,-0.913100004196167,-0.2890999913215637
1570560680.5798366,2019-10-08 12:51:20,4874.0,0.004819999914616346,0.016018999740481377,0.005481999833136797,0.05464800074696541,0.2046000063419342,-0.9121000170707703,-0.28999999165534973
1570560680.5808342,2019-10-08 12:51:20,4875.0,0.004807000048458576,0.01607700064778328,0.005475000012665987,0.054680000990629196,0.20309999585151672,-0.9096999764442444,-0.2896000146865845
1570560680.5808342,2019-10-08 12:51:20,4876.0,0.004786000121384859,0.01603499986231327,0.005483999848365784,0.054767001420259476,0.20360000431537628,-0.9082000255584717,-0.29100000858306885
1570560680.5808342,2019-10-08 12:51:20,4877.0,0.004825000185519457,0.016090000048279762,0.005444999784231186,0.05488400161266327,0.20309999585151672,-0.9077000021934509,-0.29100000858306885
1570560680.5808342,2019-10-08 12:51:20,4878.0,0.004807000048458576,0.016087999567389488,0.005456999875605106,0.05498199909925461,0.20260000228881836,-0.9101999998092651,-0.2904999852180481
1570560680.5808342,2019-10-08 12:51:20,4879.0,0.004871000070124865,0.016161000356078148,0.00546099990606308,0.05519900098443031,0.20069999992847443,-0.9110999703407288,-0.2904999852180481
1570560680.5808342,2019-10-08 12:51:20,4880.0,0.004865999799221754,0.016202999278903008,0.005477000027894974,0.05527999997138977,0.1996999979019165,-0.9164999723434448,-0.2904999852180481
1570560680.5808342,2019-10-08 12:51:20,4881.0,0.004844999872148037,0.016165999695658684,0.00545400008559227,0.055463001132011414,0.20260000228881836,-0.9140999913215637,-0.2896000146865845
1570560680.5808342,2019-10-08 12:51:20,4882.0,0.004892999771982431,0.01621199958026409,0.005435999948531389,0.05556299909949303,0.20309999585151672,-0.9110999703407288,-0.2919999957084656
1570560680.5808342,2019-10-08 12:51:20,4883.0,0.0048500001430511475,0.016246000304818153,0.005468000192195177,0.055762000381946564,0.20649999380111694,-0.9096999764442444,-0.29350000619888306
1570560680.5808342,2019-10-08 12:51:20,4884.0,0.004881999921053648,0.01629200018942356,0.005470000207424164,0.055844999849796295,0.2094999998807907,-0.9067000150680542,-0.29100000858306885
1570560680.5808342,2019-10-08 12:51:20,4885.0,0.004832000005990267,0.01630299910902977,0.0054060001857578754,0.05587000027298927,0.20559999346733093,-0.9092000126838684,-0.2930000126361847
1570560680.5808342,2019-10-08 12:51:20,4886.0,0.004788000136613846,0.016188999637961388,0.005446999799460173,0.05578099936246872,0.20260000228881836,-0.9175000190734863,-0.29589998722076416
1570560680.5808342,2019-10-08 12:51:20,4887.0,0.004788000136613846,0.016023999080061913,0.005446999799460173,0.055649999529123306,0.20069999992847443,-0.9179999828338623,-0.2964000105857849
1570560681.235084,2019-10-08 12:51:21,4888.0,0.004792999941855669,0.015866000205278397,0.005388000048696995,0.05545999854803085,0.2020999938249588,-0.9160000085830688,-0.29490000009536743
1570560681.3198762,2019-10-08 12:51:21,4889.0,0.004784000106155872,0.015765000134706497,0.005468000192195177,0.055330000817775726,0.20020000636577606,-0.9096999764442444,-0.29440000653266907
1570560681.3198762,2019-10-08 12:51:21,4890.0,0.004769999999552965,0.01573999971151352,0.005386000033468008,0.05520400032401085,0.20020000636577606,-0.9028000235557556,-0.29350000619888306
1570560681.3198762,2019-10-08 12:51:21,4891.0,0.004739999771118164,0.015691999346017838,0.005442999769002199,0.05515399947762489,0.20509999990463257,-0.9086999893188477,-0.2930000126361847
1570560681.3198762,2019-10-08 12:51:21,4892.0,0.004800000227987766,0.01575399935245514,0.005398999899625778,0.055073998868465424,0.2061000019311905,-0.9061999917030334,-0.29490000009536743
1570560681.3198762,2019-10-08 12:51:21,4893.0,0.00481100007891655,0.01570099964737892,0.0054060001857578754,0.055045999586582184,0.20559999346733093,-0.9057999849319458,-0.29350000619888306
1570560681.3198762,2019-10-08 12:51:21,4894.0,0.004769999999552965,0.015762999653816223,0.005423999857157469,0.05495699867606163,0.20360000431537628,-0.9067000150680542,-0.29440000653266907
1570560681.3198762,2019-10-08 12:51:21,4895.0,0.004749000072479248,0.01572199910879135,0.005330999847501516,0.0549129992723465,0.20509999990463257,-0.9115999937057495,-0.29490000009536743
1570560681.3198762,2019-10-08 12:51:21,4896.0,0.00482300017029047,0.015737999230623245,0.005355999805033207,0.05494999885559082,0.20999999344348907,-0.9125999808311462,-0.2969000041484833
1570560681.3208559,2019-10-08 12:51:21,4897.0,0.004784000106155872,0.01567400060594082,0.005350999999791384,0.054919999092817307,0.21140000224113464,-0.9169999957084656,-0.2992999851703644
1570560681.3208559,2019-10-08 12:51:21,4898.0,0.004765000194311142,0.015658000484108925,0.0053969998843967915,0.05490399897098541,0.21040000021457672,-0.9199000000953674,-0.29980000853538513
1570560681.3208559,2019-10-08 12:51:21,4899.0,0.0047969999723136425,0.015691999346017838,0.005419999826699495,0.05487700179219246,0.22020000219345093,-0.9199000000953674,-0.29789999127388
1570560681.3208559,2019-10-08 12:51:21,4900.0,0.004772000014781952,0.01565600000321865,0.005338000133633614,0.05481699854135513,0.22460000216960907,-0.9160000085830688,-0.2964000105857849
1570560681.3208559,2019-10-08 12:51:21,4901.0,0.004784000106155872,0.015730999410152435,0.005371999926865101,0.05479399859905243,0.22120000422000885,-0.9146000146865845,-0.298799991607666
1570560681.3208559,2019-10-08 12:51:21,4902.0,0.004774000030010939,0.015762999653816223,0.0053900000639259815,0.05473000183701515,0.219200000166893,-0.9169999957084656,-0.2969000041484833
1570560681.3208559,2019-10-08 12:51:21,4903.0,0.004774000030010939,0.01574699953198433,0.00535999983549118,0.054632000625133514,0.21580000221729279,-0.9150000214576721,-0.29739999771118164
1570560681.3208559,2019-10-08 12:51:21,4904.0,0.00471699982881546,0.015737999230623245,0.005305000115185976,0.0545400008559227,0.21240000426769257,-0.9096999764442444,-0.29490000009536743
1570560681.3208559,2019-10-08 12:51:21,4905.0,0.004722000099718571,0.01581300050020218,0.005305000115185976,0.054437000304460526,0.2168000042438507,-0.9086999893188477,-0.29100000858306885
1570560681.3208559,2019-10-08 12:51:21,4906.0,0.004774000030010939,0.015775000676512718,0.005319000221788883,0.05449000000953674,0.21580000221729279,-0.9092000126838684,-0.28859999775886536
1570560681.3208559,2019-10-08 12:51:21,4907.0,0.004865999799221754,0.015797000378370285,0.00531500019133091,0.05448300018906593,0.21289999783039093,-0.9140999913215637,-0.2896000146865845
1570560681.3208559,2019-10-08 12:51:21,4908.0,0.004807000048458576,0.015776999294757843,0.0053400001488626,0.05439100041985512,0.22220000624656677,-0.9150000214576721,-0.2890999913215637
1570560681.3208559,2019-10-08 12:51:21,4909.0,0.004786000121384859,0.015785999596118927,0.005309999920427799,0.054242998361587524,0.225600004196167,-0.9071999788284302,-0.28519999980926514
1570560681.3208559,2019-10-08 12:51:21,4910.0,0.004838999826461077,0.01585499942302704,0.005268999841064215,0.05406399816274643,0.21879999339580536,-0.9047999978065491,-0.28519999980926514
1570560681.3208559,2019-10-08 12:51:21,4911.0,0.004788000136613846,0.015859000384807587,0.005319000221788883,0.05393100157380104,0.21969999372959137,-0.9106000065803528,-0.2816999852657318
1570560681.3208559,2019-10-08 12:51:21,4912.0,0.0048039997927844524,0.01586199924349785,0.005284999962896109,0.053752999752759933,0.218299999833107,-0.9125999808311462,-0.28119999170303345
1570560681.3208559,2019-10-08 12:51:21,4913.0,0.00482900021597743,0.015859000384807587,0.005222999956458807,0.0533749982714653,0.21480000019073486,-0.9247999787330627,-0.27730000019073486
1570560681.3208559,2019-10-08 12:51:21,4914.0,0.0048500001430511475,0.01592100039124489,0.005311999935656786,0.05285299941897392,0.22360000014305115,-0.9326000213623047,-0.2734000086784363
1570560681.3218534,2019-10-08 12:51:21,4915.0,0.00482900021597743,0.016015000641345978,0.005212000105530024,0.05150299891829491,0.2304999977350235,-0.9707000255584717,-0.26899999380111694
1570560681.3218534,2019-10-08 12:51:21,4916.0,0.004858999978750944,0.01608099974691868,0.005125000141561031,0.04881099984049797,0.2313999980688095,-0.9560999870300293,-0.2705000042915344
1570560681.3218534,2019-10-08 12:51:21,4917.0,0.004902999848127365,0.016154000535607338,0.005090000107884407,0.04532799869775772,0.23729999363422394,-0.8910999894142151,-0.2685999870300293
1570560681.3218534,2019-10-08 12:51:21,4918.0,0.004982999991625547,0.01625099964439869,0.0049959998577833176,0.04282199963927269,0.23489999771118164,-0.8823000192642212,-0.26759999990463257
1570560681.3218534,2019-10-08 12:51:21,4919.0,0.0049760001711547375,0.01641100086271763,0.00506999995559454,0.04180099815130234,0.23829999566078186,-0.8554999828338623,-0.2632000148296356
1570560681.8893347,2019-10-08 12:51:21,4920.0,0.004991999827325344,0.01645899936556816,0.005057999864220619,0.04144100099802017,0.24410000443458557,-0.86080002784729,-0.259799987077713
1570560681.8893347,2019-10-08 12:51:21,4921.0,0.0049959998577833176,0.016516000032424927,0.005154000129550695,0.04160799831151962,0.24799999594688416,-0.8988999724388123,-0.2549000084400177
1570560681.8893347,2019-10-08 12:51:21,4922.0,0.005032999906688929,0.016600999981164932,0.005133999977260828,0.04187899827957153,0.2451000064611435,-0.8931000232696533,-0.2549000084400177
1570560681.8893347,2019-10-08 12:51:21,4923.0,0.005016999784857035,0.016607999801635742,0.005152000114321709,0.04217600077390671,0.23929999768733978,-0.8931000232696533,-0.25200000405311584
1570560681.8893347,2019-10-08 12:51:21,4924.0,0.004980000201612711,0.016598999500274658,0.005156999919563532,0.042468998581171036,0.24220000207424164,-0.9336000084877014,-0.2485000044107437
1570560681.8893347,2019-10-08 12:51:21,4925.0,0.004910000134259462,0.016581999137997627,0.005206999834626913,0.04255099967122078,0.23880000412464142,-0.9071999788284302,-0.25
1570560681.8893347,2019-10-08 12:51:21,4926.0,0.004980000201612711,0.016610000282526016,0.005224999971687794,0.042656999081373215,0.2451000064611435,-0.9067000150680542,-0.25
1570560681.8893347,2019-10-08 12:51:21,4927.0,0.004999000113457441,0.016620999202132225,0.005247999913990498,0.04265400022268295,0.24799999594688416,-0.9047999978065491,-0.2538999915122986
1570560681.8893347,2019-10-08 12:51:21,4928.0,0.00506300013512373,0.016679000109434128,0.005239000078290701,0.04267299920320511,0.24799999594688416,-0.8974999785423279,-0.2533999979496002
1570560681.8893347,2019-10-08 12:51:21,4929.0,0.005040000192821026,0.016718000173568726,0.005204999819397926,0.042729999870061874,0.25200000405311584,-0.9282000064849854,-0.25440001487731934
1570560681.8893347,2019-10-08 12:51:21,4930.0,0.0050490000285208225,0.016651000827550888,0.00520200002938509,0.04261099919676781,0.2533999979496002,-0.9140999913215637,-0.25929999351501465
1570560681.8893347,2019-10-08 12:51:21,4931.0,0.0049600000493228436,0.016587000340223312,0.005241000093519688,0.042635999619960785,0.2533999979496002,-0.9096999764442444,-0.26170000433921814
1570560681.8893347,2019-10-08 12:51:21,4932.0,0.004987000022083521,0.016479000449180603,0.005177000071853399,0.04259900003671646,0.259799987077713,-0.9229000210762024,-0.2632000148296356
1570560681.8893347,2019-10-08 12:51:21,4933.0,0.004978000186383724,0.01637200079858303,0.005204999819397926,0.042541999369859695,0.2685999870300293,-0.9136000275611877,-0.263700008392334
1570560681.8893347,2019-10-08 12:51:21,4934.0,0.004931999836117029,0.016354000195860863,0.005253000184893608,0.04259699955582619,0.2847000062465668,-0.9115999937057495,-0.26030001044273376
1570560681.8893347,2019-10-08 12:51:21,4935.0,0.004945999942719936,0.01635799929499626,0.005262000020593405,0.04258999973535538,0.28610000014305115,-0.9110999703407288,-0.259799987077713
1570560681.8893347,2019-10-08 12:51:21,4936.0,0.004927999805659056,0.01630599983036518,0.005235000047832727,0.042514998465776443,0.3100999891757965,-0.9057999849319458,-0.26030001044273376
1570560681.8893347,2019-10-08 12:51:21,4937.0,0.004982999991625547,0.016326000913977623,0.005152000114321709,0.0421300008893013,0.3091000020503998,-0.9247999787330627,-0.25440001487731934
1570560681.8893347,2019-10-08 12:51:21,4938.0,0.004980000201612711,0.01642500050365925,0.005129000172019005,0.041496001183986664,0.30219998955726624,-0.9945999979972839,-0.22949999570846558
1570560681.8893347,2019-10-08 12:51:21,4939.0,0.005071999970823526,0.016614999622106552,0.005109000019729137,0.04035000130534172,0.298799991607666,-1.062999963760376,-0.2485000044107437
1570560681.8893347,2019-10-08 12:51:21,4940.0,0.005115999840199947,0.017178000882267952,0.005152000114321709,0.040022000670433044,0.259799987077713,-0.7660999894142151,-0.24709999561309814
1570560681.8893347,2019-10-08 12:51:21,4941.0,0.0051449998281896114,0.01743599958717823,0.00521400012075901,0.03999299928545952,0.25929999351501465,-0.8080999851226807,-0.24799999594688416
1570560681.8893347,2019-10-08 12:51:21,4942.0,0.005078999791294336,0.01737000048160553,0.005204999819397926,0.04016200080513954,0.2587999999523163,-0.8628000020980835,-0.23880000412464142
1570560681.8893347,2019-10-08 12:51:21,4943.0,0.005071999970823526,0.017084000632166862,0.005303000099956989,0.04043399915099144,0.26899999380111694,-0.8672000169754028,-0.22609999775886536
1570560681.8893347,2019-10-08 12:51:21,4944.0,0.005003000143915415,0.016753999516367912,0.005311999935656786,0.040787000209093094,0.2720000147819519,-0.9077000021934509,-0.21729999780654907
1570560681.8893347,2019-10-08 12:51:21,4945.0,0.004953000228852034,0.016697000712156296,0.005375999957323074,0.04115799814462662,0.2660999894142151,-0.8842999935150146,-0.2206999957561493
1570560681.8893347,2019-10-08 12:51:21,4946.0,0.0049760001711547375,0.016651000827550888,0.005534000229090452,0.041645001620054245,0.26899999380111694,-0.8842999935150146,-0.22220000624656677
1570560681.890333,2019-10-08 12:51:21,4947.0,0.004989999812096357,0.016520999372005463,0.005470000207424164,0.0423320010304451,0.27639999985694885,-0.9375,-0.21580000221729279
1570560681.890333,2019-10-08 12:51:21,4948.0,0.0049600000493228436,0.016474999487400055,0.005458999890834093,0.04302100092172623,0.26899999380111694,-0.95169997215271,-0.22120000422000885
1570560681.890333,2019-10-08 12:51:21,4949.0,0.005007999949157238,0.016502000391483307,0.0055229999125003815,0.043164998292922974,0.26460000872612,-0.8974999785423279,-0.22310000658035278
1570560681.890333,2019-10-08 12:51:21,4950.0,0.004945999942719936,0.016499999910593033,0.0055160000920295715,0.043140001595020294,0.2671000063419342,-0.9253000020980835,-0.219200000166893
1570560681.890333,2019-10-08 12:51:21,4951.0,0.004974000155925751,0.016460999846458435,0.005437999963760376,0.043032001703977585,0.2612000107765198,-0.9824000000953674,-0.21089999377727509
1570560682.4907272,2019-10-08 12:51:22,4952.0,0.005034999921917915,0.01657800003886223,0.005417999811470509,0.04271399974822998,0.27149999141693115,-1.0088000297546387,-0.21089999377727509
1570560682.5685217,2019-10-08 12:51:22,4953.0,0.005078999791294336,0.016815999522805214,0.005408000200986862,0.041978999972343445,0.28119999170303345,-0.8740000128746033,-0.22849999368190765
1570560682.5685217,2019-10-08 12:51:22,4954.0,0.005173000041395426,0.01751900091767311,0.0054339999333024025,0.041579000651836395,0.2768999934196472,-0.8345000147819519,-0.22849999368190765
1570560682.5685217,2019-10-08 12:51:22,4955.0,0.005156999919563532,0.017930999398231506,0.005435999948531389,0.041338000446558,0.2930000126361847,-0.8539999723434448,-0.22949999570846558
1570560682.5685217,2019-10-08 12:51:22,4956.0,0.005119999870657921,0.01820800080895424,0.005470000207424164,0.041402000933885574,0.29440000653266907,-0.8345000147819519,-0.22849999368190765
1570560682.5685217,2019-10-08 12:51:22,4957.0,0.005158999934792519,0.018062999472022057,0.005421999841928482,0.04142799973487854,0.29490000009536743,-0.8676999807357788,-0.22020000219345093
1570560682.5685217,2019-10-08 12:51:22,4958.0,0.005061000119894743,0.017635000869631767,0.005417999811470509,0.04161100089550018,0.2964000105857849,-0.8984000086784363,-0.22020000219345093
1570560682.5685217,2019-10-08 12:51:22,4959.0,0.005078999791294336,0.017273999750614166,0.005483999848365784,0.04187599942088127,0.29490000009536743,-0.8978999853134155,-0.22220000624656677
1570560682.5685217,2019-10-08 12:51:22,4960.0,0.005038000177592039,0.016983000561594963,0.005530000198632479,0.04226800054311752,0.2969000041484833,-0.9023000001907349,-0.22460000216960907
1570560682.5685217,2019-10-08 12:51:22,4961.0,0.0050130002200603485,0.016845999285578728,0.005563999991863966,0.04304800182580948,0.29980000853538513,-0.9297000169754028,-0.2240999937057495
1570560682.5685217,2019-10-08 12:51:22,4962.0,0.005022000055760145,0.01685900054872036,0.005570999812334776,0.04393399879336357,0.29249998927116394,-0.9429000020027161,-0.21969999372959137
1570560682.5685217,2019-10-08 12:51:22,4963.0,0.004954999778419733,0.016746999695897102,0.005588999949395657,0.04471199959516525,0.29249998927116394,-0.9911999702453613,-0.2168000042438507
1570560682.5685217,2019-10-08 12:51:22,4964.0,0.005014999769628048,0.016824999824166298,0.005594000220298767,0.044672999531030655,0.2919999957084656,-0.9595000147819519,-0.21969999372959137
1570560682.5685217,2019-10-08 12:51:22,4965.0,0.0050490000285208225,0.016837000846862793,0.005499999970197678,0.04377799853682518,0.2904999852180481,-0.9848999977111816,-0.2168000042438507
1570560682.5685217,2019-10-08 12:51:22,4966.0,0.00506999995559454,0.01702200062572956,0.005489000119268894,0.04275500029325485,0.29589998722076416,-0.9067000150680542,-0.22949999570846558
1570560682.5685217,2019-10-08 12:51:22,4967.0,0.005169999785721302,0.017403999343514442,0.00546600017696619,0.042187001556158066,0.2992999851703644,-0.8945000171661377,-0.21040000021457672
1570560682.5685217,2019-10-08 12:51:22,4968.0,0.005185999907553196,0.01775900088250637,0.005497999954968691,0.04196799919009209,0.31929999589920044,-0.9146000146865845,-0.2290000021457672
1570560682.5685217,2019-10-08 12:51:22,4969.0,0.005229999776929617,0.018511999398469925,0.005491000134497881,0.041797999292612076,0.3012999892234802,-0.788100004196167,-0.2240999937057495
1570560682.5685217,2019-10-08 12:51:22,4970.0,0.0052189999260008335,0.018704000860452652,0.005452000070363283,0.04178899899125099,0.3003000020980835,-0.8651999831199646,-0.22120000422000885
1570560682.5695195,2019-10-08 12:51:22,4971.0,0.005154000129550695,0.018660999834537506,0.005510999821126461,0.04180999845266342,0.30469998717308044,-0.8378999829292297,-0.22169999778270721
1570560682.5695195,2019-10-08 12:51:22,4972.0,0.005121999885886908,0.018214000388979912,0.005495000164955854,0.041731998324394226,0.3037000000476837,-0.8637999892234802,-0.218299999833107
1570560682.5695195,2019-10-08 12:51:22,4973.0,0.00507699977606535,0.017741000279784203,0.005477000027894974,0.04179399833083153,0.3041999936103821,-0.8881999850273132,-0.2168000042438507
